[Header]
Application Name	LabSolutions
Version	5.117
Data File Name	C:\LabSolutions\Data\NormHayv_Capsaicin_28-08-2023\Data\NormHayv_LeaderCapsaicin_Repl1_28-08-2023.lcd
Output Date	12/7/2023
Output Time	2:59:51 PM

[File Information]
Type	Data File
Generated	8/28/2023 11:00:49 PM
Generated by	user
Modified	9/4/2023 9:32:26 AM
Modified by	user

[Sample Information]
Operator Name	user
Acquired	8/28/2023 11:01:08 PM
Sample Type	0:Unknown
Level	0
Sample Name	NormHayv_LeaderCapsaicin_Repl1_28-08-2023
Sample ID	
ISTD Amount1	1
ISTD Amount2	1
ISTD Amount3	1
ISTD Amount4	1
ISTD Amount5	1
ISTD Amount6	1
ISTD Amount7	1
ISTD Amount8	1
ISTD Amount9	1
ISTD Amount10	1
ISTD Amount11	1
ISTD Amount12	1
ISTD Amount13	1
ISTD Amount14	1
ISTD Amount15	1
ISTD Amount16	1
ISTD Amount17	1
ISTD Amount18	1
ISTD Amount19	1
ISTD Amount20	1
ISTD Amount21	1
ISTD Amount22	1
ISTD Amount23	1
ISTD Amount24	1
ISTD Amount25	1
ISTD Amount26	1
ISTD Amount27	1
ISTD Amount28	1
ISTD Amount29	1
ISTD Amount30	1
ISTD Amount31	1
ISTD Amount32	1
Sample Amount	1
Dilution Factor	1
Vial#	6
Injection Volume	10

[Original Files]
Data File	C:\LabSolutions\Data\NormHayv_Capsaicin_28-08-2023\Data\NormHayv_LeaderCapsaicin_Repl1_28-08-2023.lcd
Method File	C:\LabSolutions\Data\Main Methods\Capsaicin_35min_28-07-2023.lcm
Batch File	C:\LabSolutions\Data\NormHayv_Capsaicin_28-08-2023\Batches\IrfanBey_Capsaicin_Cal_and_Samples_28-08-2023.lcb
Report Format File	C:\LabSolutions\System\DEFAULT.lsr

[File Description]


[Configuration]
Instrument Name	HPLC
Instrument #	1
Line #	1
# of Detectors	1
Detector ID	PDA
Detector Name	PDA
# of Channels	2

[Peak Table(PDA-Ch1)]
# of Peaks	3
Peak#	R.Time	I.Time	F.Time	Area	Height	A/H	Conc.	Mark	ID#	Name	k'	Plate #	Plate Ht.	Tailing	Resolution	Sep.Factor	Area Ratio	Height Ratio	Conc. %	Norm Conc.
1	18.805	18.240	19.488	8246	268	30.727	3.830	   			0.000	8767	17.109	1.104	0.000	0.000	0	0	0.000	0.000
2	20.523	19.563	22.027	150763	4345	34.695	70.028	   			0.091	8074	18.577	1.145	2.000	0.000	0	0	0.000	0.000
3	30.784	29.728	32.117	56280	1164	48.365	26.142	   			0.637	9189	16.323	1.136	9.337	6.975	0	0	0.000	0.000

[Peak Table(PDA-Ch2)]
# of Peaks	26
Peak#	R.Time	I.Time	F.Time	Area	Height	A/H	Conc.	Mark	ID#	Name	k'	Plate #	Plate Ht.	Tailing	Resolution	Sep.Factor	Area Ratio	Height Ratio	Conc. %	Norm Conc.
1	1.622	1.408	1.824	39957	4222	9.465	0.435	   			0.000	736	203.912	0.000	0.000	0.000	0	0	0.000	0.000
2	1.941	1.824	2.133	16957	938	18.078	0.185	 V 			0.197	15	9722.152	0.000	0.288	0.000	0	0	0.000	0.000
3	2.197	2.133	2.475	19836	960	20.669	0.216	 V 			0.355	3	55910.608	0.000	0.070	1.802	0	0	0.000	0.000
4	2.689	2.475	2.987	128878	12157	10.601	1.404	 V 			0.658	1896	79.105	0.000	0.175	1.855	0	0	0.000	0.000
5	3.220	2.987	3.424	106006	12196	8.692	1.155	 V 			0.985	3833	39.133	0.000	2.331	1.497	0	0	0.000	0.000
6	3.509	3.424	3.712	25699	2069	12.418	0.280	 V 			1.163	887	169.166	0.000	0.851	1.181	0	0	0.000	0.000
7	3.812	3.712	3.872	13727	1791	7.663	0.150	 V 			1.350	1579	95.019	0.000	0.710	1.161	0	0	0.000	0.000
8	3.989	3.872	4.843	795343	42818	18.575	8.663	 V 			1.459	896	167.338	3.098	0.385	1.081	0	0	0.000	0.000
9	5.352	4.843	5.653	67394	4644	14.514	0.734	   			2.300	3355	44.710	0.915	3.021	1.576	0	0	0.000	0.000
10	6.799	6.368	6.976	43030	1844	23.332	0.469	   			3.192	317	472.652	0.000	1.526	1.388	0	0	0.000	0.000
11	7.063	6.976	7.627	39998	1754	22.803	0.436	 V 			3.354	279	536.793	0.000	0.164	1.051	0	0	0.000	0.000
12	7.669	7.627	7.776	2834	385	7.365	0.031	 V 			3.728	933	160.730	0.000	0.450	1.111	0	0	0.000	0.000
13	7.829	7.776	8.213	3722	264	14.112	0.041	 V 			3.827	1766	84.946	0.000	0.183	1.026	0	0	0.000	0.000
14	8.992	8.875	9.056	1475	165	8.934	0.016	 V 			4.544	8711	17.220	0.000	2.057	1.187	0	0	0.000	0.000
15	9.292	9.056	9.472	5098	249	20.454	0.056	 V 			4.728	1819	82.450	0.000	0.477	1.041	0	0	0.000	0.000
16	11.378	10.795	11.499	18021	639	28.183	0.196	   			6.015	848	176.811	0.000	1.714	1.272	0	0	0.000	0.000
17	11.902	11.499	12.448	40282	1171	34.403	0.439	 V 			6.338	2861	52.429	0.000	0.428	1.054	0	0	0.000	0.000
18	12.964	12.448	13.525	61916	2454	25.235	0.674	 V 			6.992	6446	23.270	0.000	1.382	1.103	0	0	0.000	0.000
19	13.805	13.728	14.304	3632	131	27.665	0.040	   			7.511	10586	14.170	3.822	1.422	1.074	0	0	0.000	0.000
20	15.534	15.211	16.064	22930	934	24.552	0.250	   			8.577	9122	16.443	1.234	2.913	1.142	0	0	0.000	0.000
21	16.821	16.512	17.195	8607	315	27.355	0.094	 V 			9.371	4348	34.501	0.000	1.541	1.093	0	0	0.000	0.000
22	17.854	17.461	18.240	18114	853	21.231	0.197	   			10.007	15169	9.889	1.007	1.291	1.068	0	0	0.000	0.000
23	18.805	18.240	19.541	227773	7458	30.543	2.481	   			10.593	8488	17.672	1.095	1.362	1.059	0	0	0.000	0.000
24	20.530	19.616	21.760	5370399	153515	34.983	58.496	   			11.657	7914	18.953	1.124	1.984	1.100	0	0	0.000	0.000
25	30.781	29.696	32.149	1986835	40862	48.623	21.641	 V 			17.977	9227	16.256	1.120	9.299	1.542	0	0	0.000	0.000
26	34.316	33.387	34.965	112355	2457	45.727	1.224	   			20.156	13152	11.405	0.888	2.852	1.121	0	0	0.000	0.000

[Compound Results(PDA)]
# of IDs	0

[PDA Multi Chromatogram(Ch1)]
# of Points	      3283
Interval(msec)	640
Start Time(min)	0
End Time(min)	35.008
Intensity Units	mAU
Intensity Multiplier	1
Type	MultiChrom
Wavelength(nm)	254
Bandwidth(nm)	4
R.Time (min)	Intensity
0.00000	0
0.01067	0
0.02133	0
0.03200	0
0.04267	-1
0.05333	-4
0.06400	-5
0.07467	-5
0.08533	-5
0.09600	-5
0.10667	-5
0.11733	-5
0.12800	-6
0.13867	-6
0.14933	-6
0.16000	-7
0.17067	-8
0.18133	-7
0.19200	-6
0.20267	-6
0.21333	-6
0.22400	-6
0.23467	-6
0.24533	-6
0.25600	-7
0.26667	-7
0.27733	-6
0.28800	-5
0.29867	-5
0.30933	-4
0.32000	-4
0.33067	-4
0.34133	-5
0.35200	-5
0.36267	-5
0.37333	-5
0.38400	-6
0.39467	-6
0.40533	-6
0.41600	-7
0.42667	-7
0.43733	-6
0.44800	-6
0.45867	-6
0.46933	-6
0.48000	-5
0.49067	-4
0.50133	-4
0.51200	-5
0.52267	-6
0.53333	-7
0.54400	-7
0.55467	-7
0.56533	-7
0.57600	-7
0.58667	-6
0.59733	-7
0.60800	-7
0.61867	-8
0.62933	-8
0.64000	-9
0.65067	-9
0.66133	-8
0.67200	-7
0.68267	-7
0.69333	-8
0.70400	-8
0.71467	-8
0.72533	-9
0.73600	-9
0.74667	-9
0.75733	-9
0.76800	-9
0.77867	-8
0.78933	-8
0.80000	-8
0.81067	-8
0.82133	-8
0.83200	-8
0.84267	-7
0.85333	-7
0.86400	-8
0.87467	-8
0.88533	-8
0.89600	-8
0.90667	-8
0.91733	-8
0.92800	-7
0.93867	-7
0.94933	-7
0.96000	-8
0.97067	-8
0.98133	-8
0.99200	-8
1.00267	-9
1.01333	-10
1.02400	-11
1.03467	-12
1.04533	-12
1.05600	-13
1.06667	-13
1.07733	-14
1.08800	-13
1.09867	-13
1.10933	-13
1.12000	-13
1.13067	-13
1.14133	-12
1.15200	-12
1.16267	-12
1.17333	-12
1.18400	-13
1.19467	-13
1.20533	-13
1.21600	-12
1.22667	-12
1.23733	-12
1.24800	-12
1.25867	-12
1.26933	-12
1.28000	-12
1.29067	-12
1.30133	-13
1.31200	-14
1.32267	-15
1.33333	-16
1.34400	-16
1.35467	-16
1.36533	-15
1.37600	-14
1.38667	-13
1.39733	-11
1.40800	-7
1.41867	-3
1.42933	2
1.44000	9
1.45067	15
1.46133	21
1.47200	28
1.48267	36
1.49333	45
1.50400	55
1.51467	66
1.52533	79
1.53600	94
1.54667	111
1.55733	128
1.56800	148
1.57867	172
1.58933	201
1.60000	230
1.61067	257
1.62133	276
1.63200	279
1.64267	264
1.65333	233
1.66400	197
1.67467	163
1.68533	135
1.69600	111
1.70667	93
1.71733	79
1.72800	70
1.73867	63
1.74933	58
1.76000	54
1.77067	52
1.78133	49
1.79200	46
1.80267	44
1.81333	41
1.82400	40
1.83467	39
1.84533	38
1.85600	37
1.86667	37
1.87733	37
1.88800	36
1.89867	36
1.90933	37
1.92000	36
1.93067	37
1.94133	37
1.95200	38
1.96267	37
1.97333	36
1.98400	36
1.99467	36
2.00533	36
2.01600	36
2.02667	36
2.03733	36
2.04800	37
2.05867	38
2.06933	38
2.08000	39
2.09067	38
2.10133	38
2.11200	38
2.12267	39
2.13333	39
2.14400	39
2.15467	39
2.16533	39
2.17600	39
2.18667	39
2.19733	39
2.20800	39
2.21867	38
2.22933	39
2.24000	39
2.25067	38
2.26133	36
2.27200	36
2.28267	37
2.29333	38
2.30400	38
2.31467	39
2.32533	39
2.33600	40
2.34667	41
2.35733	41
2.36800	40
2.37867	39
2.38933	38
2.40000	39
2.41067	40
2.42133	41
2.43200	43
2.44267	45
2.45333	47
2.46400	49
2.47467	51
2.48533	54
2.49600	57
2.50667	61
2.51733	64
2.52800	69
2.53867	74
2.54933	84
2.56000	115
2.57067	175
2.58133	246
2.59200	323
2.60267	421
2.61333	511
2.62400	554
2.63467	579
2.64533	608
2.65600	622
2.66667	624
2.67733	620
2.68800	589
2.69867	542
2.70933	511
2.72000	492
2.73067	457
2.74133	402
2.75200	348
2.76267	306
2.77333	276
2.78400	258
2.79467	248
2.80533	244
2.81600	246
2.82667	251
2.83733	263
2.84800	282
2.85867	308
2.86933	340
2.88000	373
2.89067	403
2.90133	423
2.91200	432
2.92267	430
2.93333	419
2.94400	403
2.95467	385
2.96533	365
2.97600	347
2.98667	331
2.99733	318
3.00800	306
3.01867	295
3.02933	285
3.04000	277
3.05067	270
3.06133	263
3.07200	258
3.08267	252
3.09333	249
3.10400	250
3.11467	256
3.12533	273
3.13600	311
3.14667	385
3.15733	509
3.16800	686
3.17867	906
3.18933	1134
3.20000	1329
3.21067	1453
3.22133	1483
3.23200	1423
3.24267	1296
3.25333	1130
3.26400	954
3.27467	790
3.28533	648
3.29600	533
3.30667	446
3.31733	382
3.32800	336
3.33867	302
3.34933	277
3.36000	260
3.37067	247
3.38133	236
3.39200	226
3.40267	220
3.41333	214
3.42400	211
3.43467	209
3.44533	209
3.45600	211
3.46667	214
3.47733	217
3.48800	222
3.49867	228
3.50933	237
3.52000	251
3.53067	269
3.54133	289
3.55200	309
3.56267	324
3.57333	333
3.58400	334
3.59467	326
3.60533	311
3.61600	293
3.62667	274
3.63733	252
3.64800	231
3.65867	212
3.66933	197
3.68000	187
3.69067	180
3.70133	177
3.71200	175
3.72267	175
3.73333	176
3.74400	175
3.75467	175
3.76533	176
3.77600	180
3.78667	192
3.79733	221
3.80800	276
3.81867	357
3.82933	454
3.84000	549
3.85067	618
3.86133	649
3.87200	641
3.88267	606
3.89333	506
3.90400	383
3.91467	365
3.92533	417
3.93600	384
3.94667	234
3.95733	49
3.96800	-92
3.97867	-158
3.98933	-160
4.00000	-122
4.01067	-69
4.02133	-16
4.03200	31
4.04267	68
4.05333	97
4.06400	116
4.07467	131
4.08533	141
4.09600	150
4.10667	155
4.11733	157
4.12800	159
4.13867	162
4.14933	163
4.16000	164
4.17067	164
4.18133	165
4.19200	167
4.20267	168
4.21333	170
4.22400	173
4.23467	175
4.24533	176
4.25600	179
4.26667	181
4.27733	183
4.28800	185
4.29867	187
4.30933	188
4.32000	189
4.33067	189
4.34133	188
4.35200	186
4.36267	183
4.37333	181
4.38400	178
4.39467	175
4.40533	172
4.41600	168
4.42667	165
4.43733	162
4.44800	158
4.45867	153
4.46933	148
4.48000	143
4.49067	138
4.50133	133
4.51200	128
4.52267	122
4.53333	118
4.54400	114
4.55467	108
4.56533	103
4.57600	98
4.58667	93
4.59733	89
4.60800	85
4.61867	82
4.62933	79
4.64000	77
4.65067	74
4.66133	73
4.67200	70
4.68267	69
4.69333	67
4.70400	63
4.71467	60
4.72533	56
4.73600	50
4.74667	43
4.75733	37
4.76800	29
4.77867	21
4.78933	14
4.80000	6
4.81067	-2
4.82133	-10
4.83200	-18
4.84267	-25
4.85333	-33
4.86400	-41
4.87467	-47
4.88533	-53
4.89600	-56
4.90667	-57
4.91733	-58
4.92800	-57
4.93867	-54
4.94933	-51
4.96000	-46
4.97067	-41
4.98133	-33
4.99200	-26
5.00267	-18
5.01333	-9
5.02400	-1
5.03467	7
5.04533	15
5.05600	21
5.06667	27
5.07733	33
5.08800	37
5.09867	41
5.10933	44
5.12000	46
5.13067	48
5.14133	50
5.15200	51
5.16267	53
5.17333	55
5.18400	58
5.19467	61
5.20533	63
5.21600	66
5.22667	69
5.23733	73
5.24800	79
5.25867	84
5.26933	89
5.28000	94
5.29067	100
5.30133	106
5.31200	110
5.32267	113
5.33333	116
5.34400	117
5.35467	115
5.36533	114
5.37600	112
5.38667	109
5.39733	105
5.40800	101
5.41867	96
5.42933	91
5.44000	84
5.45067	77
5.46133	72
5.47200	66
5.48267	61
5.49333	55
5.50400	49
5.51467	45
5.52533	41
5.53600	37
5.54667	33
5.55733	31
5.56800	29
5.57867	27
5.58933	24
5.60000	23
5.61067	21
5.62133	19
5.63200	18
5.64267	15
5.65333	14
5.66400	13
5.67467	13
5.68533	13
5.69600	14
5.70667	14
5.71733	13
5.72800	13
5.73867	13
5.74933	12
5.76000	12
5.77067	12
5.78133	12
5.79200	12
5.80267	12
5.81333	11
5.82400	10
5.83467	10
5.84533	9
5.85600	9
5.86667	8
5.87733	8
5.88800	6
5.89867	5
5.90933	5
5.92000	5
5.93067	5
5.94133	5
5.95200	5
5.96267	6
5.97333	7
5.98400	8
5.99467	10
6.00533	11
6.01600	12
6.02667	12
6.03733	13
6.04800	14
6.05867	15
6.06933	17
6.08000	19
6.09067	21
6.10133	22
6.11200	21
6.12267	20
6.13333	21
6.14400	21
6.15467	21
6.16533	21
6.17600	21
6.18667	21
6.19733	20
6.20800	20
6.21867	19
6.22933	18
6.24000	18
6.25067	18
6.26133	17
6.27200	16
6.28267	14
6.29333	13
6.30400	12
6.31467	12
6.32533	12
6.33600	13
6.34667	14
6.35733	14
6.36800	14
6.37867	13
6.38933	12
6.40000	12
6.41067	12
6.42133	13
6.43200	13
6.44267	14
6.45333	16
6.46400	17
6.47467	18
6.48533	20
6.49600	21
6.50667	22
6.51733	24
6.52800	26
6.53867	27
6.54933	29
6.56000	30
6.57067	31
6.58133	33
6.59200	35
6.60267	37
6.61333	38
6.62400	40
6.63467	41
6.64533	42
6.65600	42
6.66667	43
6.67733	46
6.68800	48
6.69867	49
6.70933	50
6.72000	52
6.73067	54
6.74133	56
6.75200	56
6.76267	56
6.77333	56
6.78400	55
6.79467	56
6.80533	56
6.81600	57
6.82667	58
6.83733	59
6.84800	60
6.85867	61
6.86933	62
6.88000	64
6.89067	65
6.90133	66
6.91200	68
6.92267	69
6.93333	73
6.94400	78
6.95467	86
6.96533	96
6.97600	108
6.98667	124
6.99733	142
7.00800	163
7.01867	185
7.02933	208
7.04000	231
7.05067	254
7.06133	273
7.07200	290
7.08267	303
7.09333	313
7.10400	318
7.11467	320
7.12533	319
7.13600	313
7.14667	303
7.15733	291
7.16800	276
7.17867	260
7.18933	242
7.20000	225
7.21067	208
7.22133	190
7.23200	175
7.24267	161
7.25333	147
7.26400	133
7.27467	121
7.28533	111
7.29600	101
7.30667	94
7.31733	87
7.32800	81
7.33867	76
7.34933	73
7.36000	69
7.37067	66
7.38133	63
7.39200	61
7.40267	60
7.41333	61
7.42400	62
7.43467	63
7.44533	64
7.45600	65
7.46667	66
7.47733	67
7.48800	68
7.49867	68
7.50933	68
7.52000	68
7.53067	67
7.54133	64
7.55200	62
7.56267	59
7.57333	56
7.58400	52
7.59467	48
7.60533	44
7.61600	40
7.62667	35
7.63733	32
7.64800	29
7.65867	26
7.66933	23
7.68000	20
7.69067	17
7.70133	15
7.71200	13
7.72267	11
7.73333	9
7.74400	6
7.75467	4
7.76533	3
7.77600	3
7.78667	3
7.79733	2
7.80800	1
7.81867	-2
7.82933	-3
7.84000	-3
7.85067	-5
7.86133	-6
7.87200	-7
7.88267	-7
7.89333	-8
7.90400	-9
7.91467	-10
7.92533	-11
7.93600	-12
7.94667	-12
7.95733	-11
7.96800	-10
7.97867	-9
7.98933	-10
8.00000	-10
8.01067	-10
8.02133	-10
8.03200	-11
8.04267	-11
8.05333	-11
8.06400	-11
8.07467	-11
8.08533	-12
8.09600	-12
8.10667	-12
8.11733	-12
8.12800	-12
8.13867	-12
8.14933	-12
8.16000	-11
8.17067	-12
8.18133	-12
8.19200	-13
8.20267	-14
8.21333	-16
8.22400	-16
8.23467	-17
8.24533	-18
8.25600	-19
8.26667	-20
8.27733	-21
8.28800	-21
8.29867	-21
8.30933	-21
8.32000	-20
8.33067	-20
8.34133	-19
8.35200	-19
8.36267	-19
8.37333	-18
8.38400	-18
8.39467	-18
8.40533	-17
8.41600	-17
8.42667	-15
8.43733	-14
8.44800	-13
8.45867	-14
8.46933	-16
8.48000	-16
8.49067	-17
8.50133	-18
8.51200	-19
8.52267	-18
8.53333	-18
8.54400	-17
8.55467	-16
8.56533	-16
8.57600	-16
8.58667	-16
8.59733	-16
8.60800	-15
8.61867	-15
8.62933	-16
8.64000	-17
8.65067	-17
8.66133	-16
8.67200	-16
8.68267	-16
8.69333	-16
8.70400	-16
8.71467	-17
8.72533	-16
8.73600	-14
8.74667	-13
8.75733	-10
8.76800	-8
8.77867	-6
8.78933	-3
8.80000	2
8.81067	7
8.82133	14
8.83200	22
8.84267	32
8.85333	43
8.86400	55
8.87467	67
8.88533	82
8.89600	100
8.90667	118
8.91733	138
8.92800	158
8.93867	178
8.94933	200
8.96000	220
8.97067	241
8.98133	262
8.99200	282
9.00267	300
9.01333	317
9.02400	332
9.03467	345
9.04533	354
9.05600	360
9.06667	365
9.07733	367
9.08800	365
9.09867	361
9.10933	354
9.12000	345
9.13067	335
9.14133	322
9.15200	308
9.16267	294
9.17333	278
9.18400	262
9.19467	244
9.20533	227
9.21600	209
9.22667	193
9.23733	176
9.24800	162
9.25867	149
9.26933	136
9.28000	124
9.29067	112
9.30133	102
9.31200	92
9.32267	84
9.33333	76
9.34400	69
9.35467	63
9.36533	58
9.37600	53
9.38667	49
9.39733	46
9.40800	43
9.41867	42
9.42933	39
9.44000	38
9.45067	37
9.46133	36
9.47200	36
9.48267	37
9.49333	37
9.50400	37
9.51467	36
9.52533	37
9.53600	38
9.54667	39
9.55733	38
9.56800	37
9.57867	36
9.58933	37
9.60000	37
9.61067	37
9.62133	37
9.63200	37
9.64267	37
9.65333	38
9.66400	37
9.67467	37
9.68533	37
9.69600	37
9.70667	37
9.71733	37
9.72800	37
9.73867	37
9.74933	37
9.76000	37
9.77067	39
9.78133	39
9.79200	40
9.80267	41
9.81333	42
9.82400	43
9.83467	45
9.84533	46
9.85600	46
9.86667	47
9.87733	48
9.88800	49
9.89867	50
9.90933	51
9.92000	52
9.93067	52
9.94133	52
9.95200	53
9.96267	53
9.97333	53
9.98400	53
9.99467	53
10.00533	54
10.01600	54
10.02667	54
10.03733	54
10.04800	55
10.05867	56
10.06933	56
10.08000	56
10.09067	56
10.10133	57
10.11200	56
10.12267	57
10.13333	58
10.14400	59
10.15467	60
10.16533	60
10.17600	59
10.18667	60
10.19733	60
10.20800	60
10.21867	62
10.22933	64
10.24000	65
10.25067	64
10.26133	64
10.27200	64
10.28267	64
10.29333	64
10.30400	65
10.31467	66
10.32533	66
10.33600	66
10.34667	66
10.35733	66
10.36800	67
10.37867	67
10.38933	67
10.40000	67
10.41067	67
10.42133	67
10.43200	68
10.44267	68
10.45333	68
10.46400	68
10.47467	67
10.48533	66
10.49600	67
10.50667	67
10.51733	67
10.52800	67
10.53867	67
10.54933	68
10.56000	68
10.57067	67
10.58133	67
10.59200	67
10.60267	68
10.61333	69
10.62400	69
10.63467	70
10.64533	70
10.65600	70
10.66667	70
10.67733	69
10.68800	69
10.69867	69
10.70933	68
10.72000	68
10.73067	68
10.74133	68
10.75200	70
10.76267	71
10.77333	72
10.78400	73
10.79467	74
10.80533	75
10.81600	77
10.82667	78
10.83733	80
10.84800	81
10.85867	81
10.86933	81
10.88000	81
10.89067	82
10.90133	83
10.91200	83
10.92267	83
10.93333	83
10.94400	84
10.95467	84
10.96533	86
10.97600	87
10.98667	87
10.99733	87
11.00800	88
11.01867	89
11.02933	90
11.04000	91
11.05067	91
11.06133	91
11.07200	92
11.08267	94
11.09333	95
11.10400	96
11.11467	95
11.12533	95
11.13600	96
11.14667	96
11.15733	96
11.16800	97
11.17867	97
11.18933	98
11.20000	99
11.21067	99
11.22133	99
11.23200	99
11.24267	99
11.25333	100
11.26400	101
11.27467	102
11.28533	101
11.29600	100
11.30667	101
11.31733	102
11.32800	102
11.33867	102
11.34933	102
11.36000	103
11.37067	103
11.38133	103
11.39200	103
11.40267	103
11.41333	104
11.42400	104
11.43467	104
11.44533	104
11.45600	103
11.46667	103
11.47733	104
11.48800	104
11.49867	103
11.50933	104
11.52000	104
11.53067	104
11.54133	105
11.55200	105
11.56267	105
11.57333	104
11.58400	105
11.59467	105
11.60533	105
11.61600	105
11.62667	105
11.63733	104
11.64800	105
11.65867	105
11.66933	106
11.68000	106
11.69067	108
11.70133	109
11.71200	110
11.72267	110
11.73333	112
11.74400	113
11.75467	114
11.76533	115
11.77600	115
11.78667	115
11.79733	116
11.80800	117
11.81867	118
11.82933	120
11.84000	120
11.85067	121
11.86133	122
11.87200	124
11.88267	126
11.89333	127
11.90400	129
11.91467	129
11.92533	128
11.93600	128
11.94667	126
11.95733	126
11.96800	125
11.97867	125
11.98933	126
12.00000	128
12.01067	129
12.02133	129
12.03200	129
12.04267	130
12.05333	131
12.06400	132
12.07467	132
12.08533	132
12.09600	131
12.10667	132
12.11733	134
12.12800	134
12.13867	136
12.14933	136
12.16000	136
12.17067	135
12.18133	134
12.19200	133
12.20267	133
12.21333	132
12.22400	132
12.23467	131
12.24533	130
12.25600	128
12.26667	126
12.27733	124
12.28800	124
12.29867	122
12.30933	121
12.32000	120
12.33067	118
12.34133	115
12.35200	114
12.36267	113
12.37333	112
12.38400	111
12.39467	110
12.40533	109
12.41600	107
12.42667	106
12.43733	104
12.44800	103
12.45867	102
12.46933	101
12.48000	100
12.49067	99
12.50133	99
12.51200	99
12.52267	99
12.53333	100
12.54400	101
12.55467	102
12.56533	102
12.57600	102
12.58667	103
12.59733	103
12.60800	103
12.61867	103
12.62933	104
12.64000	105
12.65067	105
12.66133	107
12.67200	108
12.68267	109
12.69333	110
12.70400	112
12.71467	112
12.72533	114
12.73600	117
12.74667	120
12.75733	122
12.76800	125
12.77867	128
12.78933	131
12.80000	134
12.81067	136
12.82133	139
12.83200	142
12.84267	144
12.85333	146
12.86400	149
12.87467	152
12.88533	154
12.89600	157
12.90667	159
12.91733	162
12.92800	163
12.93867	165
12.94933	166
12.96000	166
12.97067	167
12.98133	166
12.99200	166
13.00267	165
13.01333	164
13.02400	162
13.03467	161
13.04533	157
13.05600	154
13.06667	151
13.07733	148
13.08800	147
13.09867	146
13.10933	144
13.12000	143
13.13067	140
13.14133	138
13.15200	136
13.16267	134
13.17333	133
13.18400	132
13.19467	132
13.20533	131
13.21600	129
13.22667	128
13.23733	127
13.24800	126
13.25867	126
13.26933	128
13.28000	128
13.29067	128
13.30133	129
13.31200	130
13.32267	129
13.33333	130
13.34400	130
13.35467	130
13.36533	130
13.37600	131
13.38667	130
13.39733	130
13.40800	132
13.41867	133
13.42933	132
13.44000	132
13.45067	132
13.46133	133
13.47200	131
13.48267	131
13.49333	131
13.50400	131
13.51467	130
13.52533	130
13.53600	130
13.54667	130
13.55733	129
13.56800	128
13.57867	127
13.58933	126
13.60000	124
13.61067	122
13.62133	121
13.63200	120
13.64267	119
13.65333	118
13.66400	117
13.67467	116
13.68533	117
13.69600	117
13.70667	117
13.71733	118
13.72800	119
13.73867	118
13.74933	117
13.76000	116
13.77067	115
13.78133	114
13.79200	114
13.80267	112
13.81333	112
13.82400	112
13.83467	112
13.84533	111
13.85600	109
13.86667	108
13.87733	108
13.88800	108
13.89867	108
13.90933	108
13.92000	108
13.93067	108
13.94133	106
13.95200	105
13.96267	105
13.97333	104
13.98400	103
13.99467	103
14.00533	102
14.01600	102
14.02667	101
14.03733	101
14.04800	101
14.05867	101
14.06933	101
14.08000	101
14.09067	101
14.10133	101
14.11200	100
14.12267	100
14.13333	100
14.14400	99
14.15467	98
14.16533	97
14.17600	97
14.18667	97
14.19733	97
14.20800	97
14.21867	96
14.22933	97
14.24000	97
14.25067	97
14.26133	97
14.27200	98
14.28267	98
14.29333	99
14.30400	99
14.31467	99
14.32533	100
14.33600	100
14.34667	100
14.35733	100
14.36800	101
14.37867	103
14.38933	104
14.40000	104
14.41067	103
14.42133	105
14.43200	105
14.44267	105
14.45333	105
14.46400	106
14.47467	106
14.48533	106
14.49600	107
14.50667	108
14.51733	108
14.52800	107
14.53867	106
14.54933	107
14.56000	107
14.57067	107
14.58133	107
14.59200	107
14.60267	108
14.61333	109
14.62400	108
14.63467	107
14.64533	108
14.65600	108
14.66667	108
14.67733	108
14.68800	109
14.69867	109
14.70933	108
14.72000	108
14.73067	109
14.74133	108
14.75200	108
14.76267	108
14.77333	108
14.78400	107
14.79467	108
14.80533	108
14.81600	107
14.82667	107
14.83733	107
14.84800	105
14.85867	104
14.86933	104
14.88000	105
14.89067	106
14.90133	105
14.91200	105
14.92267	105
14.93333	105
14.94400	105
14.95467	105
14.96533	105
14.97600	106
14.98667	106
14.99733	105
15.00800	105
15.01867	106
15.02933	106
15.04000	106
15.05067	106
15.06133	107
15.07200	108
15.08267	108
15.09333	109
15.10400	110
15.11467	110
15.12533	111
15.13600	111
15.14667	111
15.15733	112
15.16800	113
15.17867	114
15.18933	113
15.20000	112
15.21067	111
15.22133	112
15.23200	112
15.24267	113
15.25333	111
15.26400	111
15.27467	110
15.28533	109
15.29600	109
15.30667	108
15.31733	108
15.32800	107
15.33867	106
15.34933	104
15.36000	103
15.37067	102
15.38133	101
15.39200	99
15.40267	99
15.41333	98
15.42400	97
15.43467	96
15.44533	94
15.45600	94
15.46667	93
15.47733	92
15.48800	91
15.49867	90
15.50933	90
15.52000	90
15.53067	90
15.54133	88
15.55200	85
15.56267	82
15.57333	80
15.58400	78
15.59467	77
15.60533	74
15.61600	71
15.62667	68
15.63733	65
15.64800	63
15.65867	60
15.66933	57
15.68000	54
15.69067	51
15.70133	47
15.71200	44
15.72267	42
15.73333	38
15.74400	34
15.75467	32
15.76533	29
15.77600	24
15.78667	20
15.79733	17
15.80800	14
15.81867	11
15.82933	7
15.84000	4
15.85067	2
15.86133	-0
15.87200	-4
15.88267	-7
15.89333	-11
15.90400	-14
15.91467	-15
15.92533	-18
15.93600	-20
15.94667	-23
15.95733	-24
15.96800	-26
15.97867	-27
15.98933	-28
16.00000	-28
16.01067	-30
16.02133	-32
16.03200	-34
16.04267	-36
16.05333	-36
16.06400	-36
16.07467	-36
16.08533	-37
16.09600	-37
16.10667	-38
16.11733	-39
16.12800	-41
16.13867	-42
16.14933	-44
16.16000	-46
16.17067	-49
16.18133	-50
16.19200	-50
16.20267	-50
16.21333	-50
16.22400	-50
16.23467	-50
16.24533	-51
16.25600	-51
16.26667	-51
16.27733	-50
16.28800	-50
16.29867	-50
16.30933	-50
16.32000	-49
16.33067	-48
16.34133	-48
16.35200	-48
16.36267	-48
16.37333	-48
16.38400	-47
16.39467	-46
16.40533	-46
16.41600	-45
16.42667	-44
16.43733	-43
16.44800	-43
16.45867	-43
16.46933	-43
16.48000	-44
16.49067	-44
16.50133	-43
16.51200	-42
16.52267	-41
16.53333	-40
16.54400	-39
16.55467	-38
16.56533	-36
16.57600	-34
16.58667	-33
16.59733	-32
16.60800	-30
16.61867	-28
16.62933	-25
16.64000	-24
16.65067	-23
16.66133	-20
16.67200	-18
16.68267	-16
16.69333	-14
16.70400	-11
16.71467	-9
16.72533	-8
16.73600	-7
16.74667	-5
16.75733	-3
16.76800	-1
16.77867	0
16.78933	1
16.80000	2
16.81067	3
16.82133	4
16.83200	5
16.84267	5
16.85333	4
16.86400	3
16.87467	3
16.88533	3
16.89600	3
16.90667	2
16.91733	2
16.92800	2
16.93867	2
16.94933	1
16.96000	1
16.97067	-1
16.98133	-4
16.99200	-6
17.00267	-8
17.01333	-10
17.02400	-12
17.03467	-15
17.04533	-17
17.05600	-20
17.06667	-22
17.07733	-24
17.08800	-26
17.09867	-29
17.10933	-32
17.12000	-36
17.13067	-39
17.14133	-42
17.15200	-45
17.16267	-47
17.17333	-49
17.18400	-53
17.19467	-55
17.20533	-57
17.21600	-59
17.22667	-61
17.23733	-62
17.24800	-64
17.25867	-66
17.26933	-68
17.28000	-69
17.29067	-71
17.30133	-73
17.31200	-74
17.32267	-75
17.33333	-75
17.34400	-77
17.35467	-79
17.36533	-79
17.37600	-79
17.38667	-79
17.39733	-80
17.40800	-82
17.41867	-83
17.42933	-85
17.44000	-85
17.45067	-86
17.46133	-87
17.47200	-87
17.48267	-87
17.49333	-86
17.50400	-85
17.51467	-84
17.52533	-85
17.53600	-84
17.54667	-83
17.55733	-82
17.56800	-81
17.57867	-81
17.58933	-82
17.60000	-83
17.61067	-84
17.62133	-85
17.63200	-84
17.64267	-83
17.65333	-83
17.66400	-82
17.67467	-82
17.68533	-81
17.69600	-81
17.70667	-82
17.71733	-81
17.72800	-81
17.73867	-80
17.74933	-79
17.76000	-78
17.77067	-77
17.78133	-77
17.79200	-76
17.80267	-75
17.81333	-75
17.82400	-76
17.83467	-75
17.84533	-75
17.85600	-75
17.86667	-76
17.87733	-75
17.88800	-75
17.89867	-74
17.90933	-74
17.92000	-74
17.93067	-76
17.94133	-76
17.95200	-76
17.96267	-78
17.97333	-79
17.98400	-80
17.99467	-81
18.00533	-83
18.01600	-84
18.02667	-85
18.03733	-85
18.04800	-86
18.05867	-87
18.06933	-89
18.08000	-89
18.09067	-90
18.10133	-91
18.11200	-92
18.12267	-92
18.13333	-93
18.14400	-94
18.15467	-94
18.16533	-96
18.17600	-96
18.18667	-97
18.19733	-97
18.20800	-97
18.21867	-96
18.22933	-97
18.24000	-97
18.25067	-96
18.26133	-95
18.27200	-95
18.28267	-94
18.29333	-93
18.30400	-91
18.31467	-90
18.32533	-88
18.33600	-87
18.34667	-86
18.35733	-83
18.36800	-80
18.37867	-77
18.38933	-75
18.40000	-72
18.41067	-69
18.42133	-65
18.43200	-60
18.44267	-54
18.45333	-48
18.46400	-43
18.47467	-37
18.48533	-31
18.49600	-24
18.50667	-16
18.51733	-8
18.52800	0
18.53867	8
18.54933	18
18.56000	26
18.57067	34
18.58133	43
18.59200	52
18.60267	62
18.61333	71
18.62400	80
18.63467	89
18.64533	97
18.65600	106
18.66667	115
18.67733	123
18.68800	129
18.69867	136
18.70933	142
18.72000	147
18.73067	150
18.74133	153
18.75200	155
18.76267	157
18.77333	160
18.78400	161
18.79467	162
18.80533	163
18.81600	162
18.82667	159
18.83733	156
18.84800	151
18.85867	147
18.86933	143
18.88000	138
18.89067	132
18.90133	126
18.91200	119
18.92267	112
18.93333	105
18.94400	98
18.95467	91
18.96533	85
18.97600	79
18.98667	73
18.99733	64
19.00800	55
19.01867	46
19.02933	37
19.04000	28
19.05067	21
19.06133	13
19.07200	6
19.08267	-1
19.09333	-8
19.10400	-13
19.11467	-19
19.12533	-24
19.13600	-29
19.14667	-34
19.15733	-39
19.16800	-44
19.17867	-50
19.18933	-55
19.20000	-59
19.21067	-63
19.22133	-66
19.23200	-70
19.24267	-74
19.25333	-77
19.26400	-80
19.27467	-83
19.28533	-85
19.29600	-88
19.30667	-90
19.31733	-92
19.32800	-95
19.33867	-97
19.34933	-99
19.36000	-101
19.37067	-102
19.38133	-104
19.39200	-105
19.40267	-106
19.41333	-107
19.42400	-109
19.43467	-110
19.44533	-109
19.45600	-111
19.46667	-113
19.47733	-115
19.48800	-116
19.49867	-117
19.50933	-118
19.52000	-118
19.53067	-118
19.54133	-117
19.55200	-117
19.56267	-117
19.57333	-117
19.58400	-116
19.59467	-115
19.60533	-116
19.61600	-116
19.62667	-116
19.63733	-115
19.64800	-115
19.65867	-115
19.66933	-114
19.68000	-113
19.69067	-113
19.70133	-113
19.71200	-112
19.72267	-111
19.73333	-110
19.74400	-110
19.75467	-109
19.76533	-107
19.77600	-106
19.78667	-106
19.79733	-105
19.80800	-103
19.81867	-101
19.82933	-99
19.84000	-97
19.85067	-92
19.86133	-89
19.87200	-85
19.88267	-80
19.89333	-74
19.90400	-67
19.91467	-59
19.92533	-50
19.93600	-39
19.94667	-27
19.95733	-14
19.96800	1
19.97867	19
19.98933	38
20.00000	59
20.01067	83
20.02133	111
20.03200	142
20.04267	177
20.05333	216
20.06400	257
20.07467	303
20.08533	352
20.09600	408
20.10667	468
20.11733	533
20.12800	602
20.13867	676
20.14933	755
20.16000	841
20.17067	932
20.18133	1028
20.19200	1129
20.20267	1235
20.21333	1346
20.22400	1461
20.23467	1580
20.24533	1702
20.25600	1828
20.26667	1957
20.27733	2088
20.28800	2222
20.29867	2357
20.30933	2491
20.32000	2625
20.33067	2759
20.34133	2891
20.35200	3019
20.36267	3144
20.37333	3265
20.38400	3381
20.39467	3493
20.40533	3598
20.41600	3697
20.42667	3790
20.43733	3874
20.44800	3951
20.45867	4017
20.46933	4075
20.48000	4123
20.49067	4162
20.50133	4191
20.51200	4211
20.52267	4221
20.53333	4219
20.54400	4208
20.55467	4188
20.56533	4158
20.57600	4120
20.58667	4073
20.59733	4018
20.60800	3957
20.61867	3888
20.62933	3813
20.64000	3730
20.65067	3642
20.66133	3548
20.67200	3450
20.68267	3348
20.69333	3242
20.70400	3134
20.71467	3024
20.72533	2912
20.73600	2799
20.74667	2686
20.75733	2573
20.76800	2460
20.77867	2349
20.78933	2238
20.80000	2129
20.81067	2021
20.82133	1915
20.83200	1813
20.84267	1713
20.85333	1614
20.86400	1519
20.87467	1428
20.88533	1339
20.89600	1254
20.90667	1173
20.91733	1095
20.92800	1021
20.93867	950
20.94933	883
20.96000	821
20.97067	760
20.98133	701
20.99200	646
21.00267	594
21.01333	545
21.02400	498
21.03467	454
21.04533	414
21.05600	376
21.06667	340
21.07733	307
21.08800	277
21.09867	247
21.10933	220
21.12000	194
21.13067	170
21.14133	148
21.15200	128
21.16267	109
21.17333	92
21.18400	76
21.19467	62
21.20533	48
21.21600	35
21.22667	23
21.23733	12
21.24800	3
21.25867	-5
21.26933	-14
21.28000	-24
21.29067	-32
21.30133	-40
21.31200	-47
21.32267	-53
21.33333	-58
21.34400	-63
21.35467	-69
21.36533	-73
21.37600	-77
21.38667	-81
21.39733	-85
21.40800	-87
21.41867	-90
21.42933	-93
21.44000	-96
21.45067	-99
21.46133	-101
21.47200	-103
21.48267	-105
21.49333	-107
21.50400	-108
21.51467	-109
21.52533	-110
21.53600	-111
21.54667	-114
21.55733	-116
21.56800	-118
21.57867	-120
21.58933	-120
21.60000	-121
21.61067	-121
21.62133	-122
21.63200	-123
21.64267	-124
21.65333	-125
21.66400	-125
21.67467	-125
21.68533	-125
21.69600	-126
21.70667	-127
21.71733	-128
21.72800	-129
21.73867	-129
21.74933	-129
21.76000	-128
21.77067	-128
21.78133	-129
21.79200	-131
21.80267	-132
21.81333	-132
21.82400	-132
21.83467	-132
21.84533	-133
21.85600	-133
21.86667	-133
21.87733	-133
21.88800	-132
21.89867	-133
21.90933	-134
21.92000	-134
21.93067	-135
21.94133	-134
21.95200	-134
21.96267	-134
21.97333	-134
21.98400	-134
21.99467	-135
22.00533	-135
22.01600	-135
22.02667	-136
22.03733	-136
22.04800	-135
22.05867	-136
22.06933	-138
22.08000	-138
22.09067	-138
22.10133	-137
22.11200	-135
22.12267	-136
22.13333	-136
22.14400	-136
22.15467	-137
22.16533	-137
22.17600	-136
22.18667	-137
22.19733	-138
22.20800	-138
22.21867	-138
22.22933	-139
22.24000	-139
22.25067	-141
22.26133	-141
22.27200	-141
22.28267	-141
22.29333	-142
22.30400	-143
22.31467	-143
22.32533	-145
22.33600	-146
22.34667	-146
22.35733	-146
22.36800	-147
22.37867	-150
22.38933	-150
22.40000	-149
22.41067	-149
22.42133	-149
22.43200	-150
22.44267	-150
22.45333	-150
22.46400	-150
22.47467	-151
22.48533	-151
22.49600	-150
22.50667	-151
22.51733	-151
22.52800	-152
22.53867	-153
22.54933	-154
22.56000	-156
22.57067	-158
22.58133	-159
22.59200	-159
22.60267	-160
22.61333	-161
22.62400	-162
22.63467	-161
22.64533	-162
22.65600	-163
22.66667	-163
22.67733	-162
22.68800	-162
22.69867	-162
22.70933	-162
22.72000	-163
22.73067	-163
22.74133	-163
22.75200	-164
22.76267	-164
22.77333	-164
22.78400	-164
22.79467	-163
22.80533	-164
22.81600	-164
22.82667	-164
22.83733	-165
22.84800	-166
22.85867	-165
22.86933	-166
22.88000	-165
22.89067	-164
22.90133	-165
22.91200	-165
22.92267	-165
22.93333	-166
22.94400	-166
22.95467	-166
22.96533	-165
22.97600	-166
22.98667	-166
22.99733	-165
23.00800	-165
23.01867	-165
23.02933	-165
23.04000	-166
23.05067	-166
23.06133	-165
23.07200	-164
23.08267	-164
23.09333	-165
23.10400	-165
23.11467	-165
23.12533	-166
23.13600	-166
23.14667	-166
23.15733	-165
23.16800	-166
23.17867	-166
23.18933	-166
23.20000	-167
23.21067	-167
23.22133	-166
23.23200	-166
23.24267	-166
23.25333	-166
23.26400	-166
23.27467	-166
23.28533	-166
23.29600	-167
23.30667	-167
23.31733	-168
23.32800	-168
23.33867	-168
23.34933	-169
23.36000	-168
23.37067	-168
23.38133	-168
23.39200	-168
23.40267	-169
23.41333	-168
23.42400	-168
23.43467	-169
23.44533	-170
23.45600	-170
23.46667	-169
23.47733	-170
23.48800	-170
23.49867	-171
23.50933	-171
23.52000	-171
23.53067	-172
23.54133	-171
23.55200	-171
23.56267	-170
23.57333	-170
23.58400	-169
23.59467	-169
23.60533	-169
23.61600	-171
23.62667	-171
23.63733	-171
23.64800	-172
23.65867	-174
23.66933	-174
23.68000	-174
23.69067	-174
23.70133	-176
23.71200	-177
23.72267	-179
23.73333	-180
23.74400	-179
23.75467	-178
23.76533	-178
23.77600	-177
23.78667	-178
23.79733	-180
23.80800	-182
23.81867	-184
23.82933	-184
23.84000	-184
23.85067	-183
23.86133	-183
23.87200	-183
23.88267	-184
23.89333	-185
23.90400	-185
23.91467	-185
23.92533	-185
23.93600	-185
23.94667	-185
23.95733	-184
23.96800	-183
23.97867	-183
23.98933	-184
24.00000	-184
24.01067	-183
24.02133	-183
24.03200	-182
24.04267	-183
24.05333	-184
24.06400	-184
24.07467	-184
24.08533	-185
24.09600	-186
24.10667	-186
24.11733	-187
24.12800	-187
24.13867	-187
24.14933	-187
24.16000	-187
24.17067	-186
24.18133	-185
24.19200	-186
24.20267	-187
24.21333	-188
24.22400	-189
24.23467	-190
24.24533	-190
24.25600	-190
24.26667	-189
24.27733	-189
24.28800	-189
24.29867	-189
24.30933	-189
24.32000	-189
24.33067	-189
24.34133	-189
24.35200	-190
24.36267	-189
24.37333	-189
24.38400	-189
24.39467	-188
24.40533	-188
24.41600	-188
24.42667	-187
24.43733	-187
24.44800	-187
24.45867	-189
24.46933	-189
24.48000	-188
24.49067	-188
24.50133	-187
24.51200	-187
24.52267	-186
24.53333	-187
24.54400	-188
24.55467	-189
24.56533	-190
24.57600	-191
24.58667	-190
24.59733	-189
24.60800	-189
24.61867	-189
24.62933	-190
24.64000	-191
24.65067	-191
24.66133	-191
24.67200	-192
24.68267	-192
24.69333	-192
24.70400	-192
24.71467	-192
24.72533	-192
24.73600	-192
24.74667	-193
24.75733	-194
24.76800	-195
24.77867	-196
24.78933	-196
24.80000	-196
24.81067	-196
24.82133	-196
24.83200	-196
24.84267	-197
24.85333	-198
24.86400	-199
24.87467	-198
24.88533	-198
24.89600	-199
24.90667	-200
24.91733	-201
24.92800	-201
24.93867	-200
24.94933	-200
24.96000	-199
24.97067	-199
24.98133	-199
24.99200	-200
25.00267	-199
25.01333	-198
25.02400	-198
25.03467	-198
25.04533	-198
25.05600	-199
25.06667	-199
25.07733	-198
25.08800	-199
25.09867	-201
25.10933	-202
25.12000	-201
25.13067	-201
25.14133	-201
25.15200	-201
25.16267	-203
25.17333	-204
25.18400	-203
25.19467	-203
25.20533	-204
25.21600	-203
25.22667	-203
25.23733	-203
25.24800	-203
25.25867	-203
25.26933	-202
25.28000	-202
25.29067	-202
25.30133	-203
25.31200	-204
25.32267	-203
25.33333	-202
25.34400	-202
25.35467	-203
25.36533	-203
25.37600	-203
25.38667	-204
25.39733	-203
25.40800	-203
25.41867	-204
25.42933	-205
25.44000	-205
25.45067	-205
25.46133	-206
25.47200	-207
25.48267	-207
25.49333	-207
25.50400	-207
25.51467	-206
25.52533	-206
25.53600	-206
25.54667	-206
25.55733	-206
25.56800	-206
25.57867	-205
25.58933	-204
25.60000	-204
25.61067	-205
25.62133	-205
25.63200	-204
25.64267	-203
25.65333	-202
25.66400	-202
25.67467	-202
25.68533	-200
25.69600	-200
25.70667	-199
25.71733	-199
25.72800	-198
25.73867	-198
25.74933	-197
25.76000	-197
25.77067	-198
25.78133	-199
25.79200	-200
25.80267	-199
25.81333	-198
25.82400	-198
25.83467	-197
25.84533	-197
25.85600	-196
25.86667	-194
25.87733	-193
25.88800	-192
25.89867	-191
25.90933	-191
25.92000	-192
25.93067	-192
25.94133	-192
25.95200	-191
25.96267	-191
25.97333	-192
25.98400	-192
25.99467	-191
26.00533	-190
26.01600	-190
26.02667	-190
26.03733	-190
26.04800	-189
26.05867	-188
26.06933	-188
26.08000	-188
26.09067	-186
26.10133	-186
26.11200	-186
26.12267	-185
26.13333	-184
26.14400	-184
26.15467	-185
26.16533	-185
26.17600	-186
26.18667	-185
26.19733	-186
26.20800	-187
26.21867	-187
26.22933	-186
26.24000	-186
26.25067	-186
26.26133	-186
26.27200	-187
26.28267	-186
26.29333	-186
26.30400	-185
26.31467	-185
26.32533	-185
26.33600	-184
26.34667	-186
26.35733	-186
26.36800	-185
26.37867	-185
26.38933	-185
26.40000	-184
26.41067	-183
26.42133	-182
26.43200	-181
26.44267	-181
26.45333	-182
26.46400	-182
26.47467	-182
26.48533	-183
26.49600	-182
26.50667	-183
26.51733	-184
26.52800	-183
26.53867	-182
26.54933	-183
26.56000	-183
26.57067	-183
26.58133	-182
26.59200	-182
26.60267	-183
26.61333	-183
26.62400	-184
26.63467	-184
26.64533	-184
26.65600	-184
26.66667	-183
26.67733	-183
26.68800	-184
26.69867	-185
26.70933	-186
26.72000	-187
26.73067	-187
26.74133	-187
26.75200	-189
26.76267	-189
26.77333	-189
26.78400	-190
26.79467	-191
26.80533	-192
26.81600	-192
26.82667	-193
26.83733	-194
26.84800	-194
26.85867	-195
26.86933	-195
26.88000	-196
26.89067	-197
26.90133	-197
26.91200	-198
26.92267	-199
26.93333	-200
26.94400	-200
26.95467	-202
26.96533	-203
26.97600	-204
26.98667	-205
26.99733	-205
27.00800	-203
27.01867	-203
27.02933	-203
27.04000	-203
27.05067	-204
27.06133	-206
27.07200	-208
27.08267	-208
27.09333	-210
27.10400	-211
27.11467	-211
27.12533	-211
27.13600	-211
27.14667	-211
27.15733	-211
27.16800	-211
27.17867	-211
27.18933	-211
27.20000	-211
27.21067	-211
27.22133	-210
27.23200	-210
27.24267	-210
27.25333	-210
27.26400	-209
27.27467	-209
27.28533	-209
27.29600	-209
27.30667	-209
27.31733	-210
27.32800	-211
27.33867	-211
27.34933	-211
27.36000	-212
27.37067	-214
27.38133	-215
27.39200	-215
27.40267	-216
27.41333	-217
27.42400	-217
27.43467	-218
27.44533	-219
27.45600	-218
27.46667	-218
27.47733	-218
27.48800	-219
27.49867	-220
27.50933	-221
27.52000	-222
27.53067	-222
27.54133	-223
27.55200	-223
27.56267	-225
27.57333	-225
27.58400	-226
27.59467	-226
27.60533	-227
27.61600	-227
27.62667	-228
27.63733	-227
27.64800	-226
27.65867	-225
27.66933	-226
27.68000	-226
27.69067	-226
27.70133	-227
27.71200	-227
27.72267	-227
27.73333	-227
27.74400	-227
27.75467	-227
27.76533	-227
27.77600	-227
27.78667	-227
27.79733	-228
27.80800	-229
27.81867	-229
27.82933	-229
27.84000	-229
27.85067	-229
27.86133	-230
27.87200	-230
27.88267	-231
27.89333	-231
27.90400	-231
27.91467	-231
27.92533	-230
27.93600	-229
27.94667	-228
27.95733	-228
27.96800	-228
27.97867	-228
27.98933	-228
28.00000	-227
28.01067	-227
28.02133	-228
28.03200	-228
28.04267	-227
28.05333	-227
28.06400	-228
28.07467	-227
28.08533	-227
28.09600	-227
28.10667	-228
28.11733	-228
28.12800	-229
28.13867	-229
28.14933	-229
28.16000	-228
28.17067	-227
28.18133	-226
28.19200	-226
28.20267	-226
28.21333	-225
28.22400	-226
28.23467	-226
28.24533	-227
28.25600	-226
28.26667	-226
28.27733	-226
28.28800	-226
28.29867	-226
28.30933	-226
28.32000	-226
28.33067	-225
28.34133	-225
28.35200	-225
28.36267	-225
28.37333	-225
28.38400	-226
28.39467	-226
28.40533	-226
28.41600	-225
28.42667	-225
28.43733	-224
28.44800	-224
28.45867	-224
28.46933	-224
28.48000	-225
28.49067	-224
28.50133	-224
28.51200	-225
28.52267	-225
28.53333	-225
28.54400	-225
28.55467	-224
28.56533	-224
28.57600	-224
28.58667	-224
28.59733	-224
28.60800	-224
28.61867	-225
28.62933	-226
28.64000	-226
28.65067	-227
28.66133	-227
28.67200	-227
28.68267	-227
28.69333	-228
28.70400	-228
28.71467	-229
28.72533	-229
28.73600	-229
28.74667	-229
28.75733	-229
28.76800	-229
28.77867	-229
28.78933	-228
28.80000	-228
28.81067	-229
28.82133	-230
28.83200	-231
28.84267	-231
28.85333	-231
28.86400	-232
28.87467	-233
28.88533	-234
28.89600	-234
28.90667	-234
28.91733	-234
28.92800	-235
28.93867	-236
28.94933	-236
28.96000	-236
28.97067	-237
28.98133	-237
28.99200	-238
29.00267	-237
29.01333	-236
29.02400	-235
29.03467	-234
29.04533	-234
29.05600	-235
29.06667	-235
29.07733	-235
29.08800	-235
29.09867	-236
29.10933	-236
29.12000	-235
29.13067	-235
29.14133	-236
29.15200	-236
29.16267	-235
29.17333	-235
29.18400	-236
29.19467	-236
29.20533	-236
29.21600	-236
29.22667	-235
29.23733	-235
29.24800	-234
29.25867	-233
29.26933	-233
29.28000	-232
29.29067	-232
29.30133	-231
29.31200	-230
29.32267	-230
29.33333	-230
29.34400	-229
29.35467	-230
29.36533	-231
29.37600	-231
29.38667	-231
29.39733	-232
29.40800	-232
29.41867	-232
29.42933	-232
29.44000	-231
29.45067	-232
29.46133	-231
29.47200	-231
29.48267	-231
29.49333	-231
29.50400	-230
29.51467	-228
29.52533	-228
29.53600	-227
29.54667	-227
29.55733	-227
29.56800	-227
29.57867	-227
29.58933	-227
29.60000	-227
29.61067	-228
29.62133	-228
29.63200	-228
29.64267	-228
29.65333	-228
29.66400	-229
29.67467	-230
29.68533	-231
29.69600	-231
29.70667	-231
29.71733	-231
29.72800	-229
29.73867	-229
29.74933	-228
29.76000	-227
29.77067	-226
29.78133	-226
29.79200	-225
29.80267	-225
29.81333	-225
29.82400	-226
29.83467	-224
29.84533	-223
29.85600	-222
29.86667	-222
29.87733	-222
29.88800	-222
29.89867	-222
29.90933	-222
29.92000	-222
29.93067	-221
29.94133	-220
29.95200	-218
29.96267	-215
29.97333	-213
29.98400	-211
29.99467	-209
30.00533	-206
30.01600	-202
30.02667	-198
30.03733	-193
30.04800	-188
30.05867	-183
30.06933	-177
30.08000	-170
30.09067	-165
30.10133	-159
30.11200	-154
30.12267	-147
30.13333	-139
30.14400	-130
30.15467	-121
30.16533	-110
30.17600	-98
30.18667	-87
30.19733	-74
30.20800	-61
30.21867	-47
30.22933	-33
30.24000	-19
30.25067	-3
30.26133	13
30.27200	30
30.28267	46
30.29333	64
30.30400	83
30.31467	102
30.32533	123
30.33600	145
30.34667	166
30.35733	189
30.36800	212
30.37867	235
30.38933	258
30.40000	282
30.41067	306
30.42133	330
30.43200	354
30.44267	379
30.45333	405
30.46400	431
30.47467	456
30.48533	482
30.49600	507
30.50667	532
30.51733	558
30.52800	583
30.53867	607
30.54933	632
30.56000	656
30.57067	678
30.58133	700
30.59200	721
30.60267	742
30.61333	762
30.62400	782
30.63467	799
30.64533	816
30.65600	832
30.66667	848
30.67733	862
30.68800	874
30.69867	885
30.70933	896
30.72000	904
30.73067	912
30.74133	918
30.75200	923
30.76267	927
30.77333	930
30.78400	930
30.79467	929
30.80533	927
30.81600	922
30.82667	918
30.83733	911
30.84800	905
30.85867	897
30.86933	888
30.88000	878
30.89067	866
30.90133	854
30.91200	842
30.92267	827
30.93333	813
30.94400	798
30.95467	781
30.96533	763
30.97600	744
30.98667	724
30.99733	705
31.00800	685
31.01867	664
31.02933	644
31.04000	623
31.05067	602
31.06133	581
31.07200	560
31.08267	538
31.09333	517
31.10400	496
31.11467	474
31.12533	453
31.13600	431
31.14667	412
31.15733	393
31.16800	373
31.17867	352
31.18933	332
31.20000	312
31.21067	293
31.22133	274
31.23200	255
31.24267	237
31.25333	219
31.26400	200
31.27467	182
31.28533	164
31.29600	146
31.30667	129
31.31733	113
31.32800	98
31.33867	83
31.34933	68
31.36000	55
31.37067	42
31.38133	30
31.39200	16
31.40267	4
31.41333	-7
31.42400	-18
31.43467	-28
31.44533	-38
31.45600	-49
31.46667	-58
31.47733	-67
31.48800	-75
31.49867	-83
31.50933	-91
31.52000	-98
31.53067	-105
31.54133	-111
31.55200	-116
31.56267	-122
31.57333	-128
31.58400	-135
31.59467	-140
31.60533	-145
31.61600	-151
31.62667	-157
31.63733	-162
31.64800	-167
31.65867	-171
31.66933	-174
31.68000	-178
31.69067	-181
31.70133	-184
31.71200	-187
31.72267	-189
31.73333	-191
31.74400	-194
31.75467	-197
31.76533	-199
31.77600	-201
31.78667	-202
31.79733	-204
31.80800	-207
31.81867	-209
31.82933	-211
31.84000	-212
31.85067	-213
31.86133	-215
31.87200	-217
31.88267	-220
31.89333	-222
31.90400	-223
31.91467	-223
31.92533	-223
31.93600	-223
31.94667	-222
31.95733	-223
31.96800	-225
31.97867	-227
31.98933	-228
32.00000	-229
32.01067	-231
32.02133	-231
32.03200	-233
32.04267	-233
32.05333	-234
32.06400	-235
32.07467	-236
32.08533	-236
32.09600	-237
32.10667	-238
32.11733	-239
32.12800	-239
32.13867	-240
32.14933	-240
32.16000	-239
32.17067	-239
32.18133	-239
32.19200	-239
32.20267	-240
32.21333	-239
32.22400	-239
32.23467	-239
32.24533	-239
32.25600	-240
32.26667	-240
32.27733	-240
32.28800	-239
32.29867	-238
32.30933	-238
32.32000	-238
32.33067	-238
32.34133	-238
32.35200	-238
32.36267	-238
32.37333	-239
32.38400	-239
32.39467	-239
32.40533	-239
32.41600	-240
32.42667	-240
32.43733	-240
32.44800	-241
32.45867	-241
32.46933	-240
32.48000	-240
32.49067	-239
32.50133	-239
32.51200	-239
32.52267	-238
32.53333	-238
32.54400	-238
32.55467	-238
32.56533	-238
32.57600	-236
32.58667	-235
32.59733	-235
32.60800	-234
32.61867	-233
32.62933	-234
32.64000	-234
32.65067	-234
32.66133	-234
32.67200	-235
32.68267	-236
32.69333	-236
32.70400	-236
32.71467	-236
32.72533	-236
32.73600	-237
32.74667	-237
32.75733	-238
32.76800	-238
32.77867	-239
32.78933	-238
32.80000	-239
32.81067	-240
32.82133	-241
32.83200	-241
32.84267	-242
32.85333	-242
32.86400	-242
32.87467	-243
32.88533	-244
32.89600	-244
32.90667	-244
32.91733	-243
32.92800	-243
32.93867	-243
32.94933	-243
32.96000	-245
32.97067	-245
32.98133	-246
32.99200	-245
33.00267	-243
33.01333	-243
33.02400	-242
33.03467	-241
33.04533	-241
33.05600	-242
33.06667	-242
33.07733	-242
33.08800	-242
33.09867	-242
33.10933	-243
33.12000	-243
33.13067	-243
33.14133	-244
33.15200	-244
33.16267	-244
33.17333	-244
33.18400	-245
33.19467	-245
33.20533	-246
33.21600	-246
33.22667	-247
33.23733	-246
33.24800	-246
33.25867	-248
33.26933	-248
33.28000	-247
33.29067	-247
33.30133	-247
33.31200	-248
33.32267	-248
33.33333	-248
33.34400	-247
33.35467	-247
33.36533	-247
33.37600	-246
33.38667	-246
33.39733	-246
33.40800	-246
33.41867	-246
33.42933	-246
33.44000	-247
33.45067	-246
33.46133	-245
33.47200	-246
33.48267	-246
33.49333	-245
33.50400	-246
33.51467	-246
33.52533	-245
33.53600	-246
33.54667	-247
33.55733	-247
33.56800	-248
33.57867	-247
33.58933	-247
33.60000	-247
33.61067	-247
33.62133	-246
33.63200	-245
33.64267	-244
33.65333	-244
33.66400	-244
33.67467	-243
33.68533	-244
33.69600	-244
33.70667	-243
33.71733	-242
33.72800	-241
33.73867	-239
33.74933	-238
33.76000	-236
33.77067	-234
33.78133	-232
33.79200	-231
33.80267	-231
33.81333	-230
33.82400	-229
33.83467	-227
33.84533	-227
33.85600	-226
33.86667	-224
33.87733	-222
33.88800	-222
33.89867	-221
33.90933	-219
33.92000	-217
33.93067	-217
33.94133	-216
33.95200	-215
33.96267	-215
33.97333	-213
33.98400	-211
33.99467	-209
34.00533	-208
34.01600	-206
34.02667	-205
34.03733	-204
34.04800	-203
34.05867	-203
34.06933	-201
34.08000	-199
34.09067	-197
34.10133	-195
34.11200	-193
34.12267	-193
34.13333	-193
34.14400	-192
34.15467	-191
34.16533	-189
34.17600	-188
34.18667	-187
34.19733	-185
34.20800	-184
34.21867	-184
34.22933	-184
34.24000	-184
34.25067	-184
34.26133	-184
34.27200	-183
34.28267	-183
34.29333	-183
34.30400	-183
34.31467	-184
34.32533	-184
34.33600	-184
34.34667	-186
34.35733	-186
34.36800	-187
34.37867	-189
34.38933	-190
34.40000	-190
34.41067	-189
34.42133	-189
34.43200	-189
34.44267	-190
34.45333	-190
34.46400	-191
34.47467	-193
34.48533	-195
34.49600	-196
34.50667	-198
34.51733	-200
34.52800	-202
34.53867	-203
34.54933	-205
34.56000	-206
34.57067	-208
34.58133	-209
34.59200	-209
34.60267	-211
34.61333	-213
34.62400	-214
34.63467	-215
34.64533	-217
34.65600	-219
34.66667	-221
34.67733	-223
34.68800	-225
34.69867	-227
34.70933	-228
34.72000	-229
34.73067	-230
34.74133	-231
34.75200	-232
34.76267	-233
34.77333	-234
34.78400	-235
34.79467	-237
34.80533	-240
34.81600	-241
34.82667	-242
34.83733	-243
34.84800	-243
34.85867	-245
34.86933	-246
34.88000	-247
34.89067	-248
34.90133	-249
34.91200	-251
34.92267	-253
34.93333	-254
34.94400	-254
34.95467	-256
34.96533	-257
34.97600	-259
34.98667	-262
34.99733	-263
35.00800	-264

[PDA Multi Chromatogram(Ch2)]
# of Points	      3283
Interval(msec)	640
Start Time(min)	0
End Time(min)	35.008
Intensity Units	mAU
Intensity Multiplier	1
Type	MultiChrom
Wavelength(nm)	190
Bandwidth(nm)	4
R.Time (min)	Intensity
0.00000	0
0.01067	0
0.02133	0
0.03200	0
0.04267	-9
0.05333	-9
0.06400	-0
0.07467	-4
0.08533	-12
0.09600	-16
0.10667	-21
0.11733	-26
0.12800	-27
0.13867	-24
0.14933	-33
0.16000	-49
0.17067	-43
0.18133	-40
0.19200	-61
0.20267	-72
0.21333	-65
0.22400	-68
0.23467	-86
0.24533	-101
0.25600	-112
0.26667	-117
0.27733	-99
0.28800	-71
0.29867	-59
0.30933	-57
0.32000	-52
0.33067	-55
0.34133	-64
0.35200	-78
0.36267	-89
0.37333	-91
0.38400	-93
0.39467	-96
0.40533	-84
0.41600	-69
0.42667	-67
0.43733	-67
0.44800	-75
0.45867	-97
0.46933	-115
0.48000	-125
0.49067	-117
0.50133	-100
0.51200	-96
0.52267	-94
0.53333	-95
0.54400	-90
0.55467	-90
0.56533	-104
0.57600	-117
0.58667	-106
0.59733	-107
0.60800	-125
0.61867	-125
0.62933	-112
0.64000	-109
0.65067	-115
0.66133	-122
0.67200	-128
0.68267	-126
0.69333	-125
0.70400	-132
0.71467	-128
0.72533	-122
0.73600	-121
0.74667	-101
0.75733	-93
0.76800	-95
0.77867	-100
0.78933	-108
0.80000	-98
0.81067	-107
0.82133	-131
0.83200	-130
0.84267	-125
0.85333	-127
0.86400	-125
0.87467	-122
0.88533	-129
0.89600	-137
0.90667	-145
0.91733	-153
0.92800	-154
0.93867	-143
0.94933	-141
0.96000	-148
0.97067	-137
0.98133	-139
0.99200	-145
1.00267	-150
1.01333	-156
1.02400	-149
1.03467	-153
1.04533	-154
1.05600	-139
1.06667	-132
1.07733	-134
1.08800	-146
1.09867	-156
1.10933	-166
1.12000	-170
1.13067	-161
1.14133	-149
1.15200	-147
1.16267	-142
1.17333	-137
1.18400	-136
1.19467	-130
1.20533	-132
1.21600	-136
1.22667	-125
1.23733	-123
1.24800	-141
1.25867	-140
1.26933	-126
1.28000	-119
1.29067	-115
1.30133	-105
1.31200	-102
1.32267	-106
1.33333	-113
1.34400	-138
1.35467	-162
1.36533	-162
1.37600	-170
1.38667	-186
1.39733	-185
1.40800	-192
1.41867	-180
1.42933	-124
1.44000	-49
1.45067	47
1.46133	154
1.47200	272
1.48267	401
1.49333	551
1.50400	729
1.51467	932
1.52533	1151
1.53600	1400
1.54667	1687
1.55733	1997
1.56800	2337
1.57867	2730
1.58933	3168
1.60000	3581
1.61067	3894
1.62133	4035
1.63200	3926
1.64267	3556
1.65333	3020
1.66400	2453
1.67467	1937
1.68533	1533
1.69600	1244
1.70667	1030
1.71733	899
1.72800	832
1.73867	776
1.74933	722
1.76000	682
1.77067	660
1.78133	652
1.79200	655
1.80267	641
1.81333	615
1.82400	608
1.83467	616
1.84533	621
1.85600	645
1.86667	674
1.87733	693
1.88800	714
1.89867	727
1.90933	735
1.92000	745
1.93067	750
1.94133	760
1.95200	758
1.96267	754
1.97333	761
1.98400	759
1.99467	759
2.00533	762
2.01600	760
2.02667	758
2.03733	756
2.04800	767
2.05867	781
2.06933	776
2.08000	763
2.09067	751
2.10133	761
2.11200	763
2.12267	745
2.13333	747
2.14400	757
2.15467	760
2.16533	769
2.17600	787
2.18667	791
2.19733	788
2.20800	795
2.21867	795
2.22933	801
2.24000	806
2.25067	799
2.26133	796
2.27200	794
2.28267	799
2.29333	806
2.30400	808
2.31467	816
2.32533	832
2.33600	832
2.34667	811
2.35733	794
2.36800	794
2.37867	805
2.38933	812
2.40000	815
2.41067	822
2.42133	817
2.43200	801
2.44267	795
2.45333	802
2.46400	798
2.47467	806
2.48533	825
2.49600	838
2.50667	853
2.51733	863
2.52800	889
2.53867	911
2.54933	951
2.56000	1096
2.57067	1542
2.58133	2412
2.59200	3571
2.60267	4954
2.61333	6507
2.62400	7958
2.63467	9083
2.64533	9928
2.65600	10613
2.66667	11207
2.67733	11721
2.68800	11999
2.69867	11830
2.70933	11091
2.72000	9858
2.73067	8373
2.74133	6866
2.75200	5537
2.76267	4455
2.77333	3611
2.78400	2984
2.79467	2526
2.80533	2181
2.81600	1929
2.82667	1777
2.83733	1676
2.84800	1592
2.85867	1537
2.86933	1510
2.88000	1499
2.89067	1506
2.90133	1502
2.91200	1480
2.92267	1461
2.93333	1447
2.94400	1428
2.95467	1395
2.96533	1365
2.97600	1351
2.98667	1338
2.99733	1339
3.00800	1352
3.01867	1351
3.02933	1368
3.04000	1413
3.05067	1465
3.06133	1510
3.07200	1543
3.08267	1580
3.09333	1630
3.10400	1694
3.11467	1798
3.12533	1966
3.13600	2287
3.14667	2901
3.15733	3916
3.16800	5377
3.17867	7198
3.18933	9120
3.20000	10766
3.21067	11796
3.22133	12051
3.23200	11563
3.24267	10503
3.25333	9115
3.26400	7635
3.27467	6222
3.28533	4986
3.29600	3966
3.30667	3163
3.31733	2575
3.32800	2160
3.33867	1865
3.34933	1656
3.36000	1517
3.37067	1415
3.38133	1333
3.39200	1256
3.40267	1171
3.41333	1104
3.42400	1076
3.43467	1095
3.44533	1164
3.45600	1297
3.46667	1480
3.47733	1660
3.48800	1805
3.49867	1907
3.50933	1933
3.52000	1899
3.53067	1842
3.54133	1774
3.55200	1712
3.56267	1644
3.57333	1564
3.58400	1484
3.59467	1409
3.60533	1328
3.61600	1233
3.62667	1151
3.63733	1080
3.64800	1017
3.65867	951
3.66933	872
3.68000	829
3.69067	813
3.70133	790
3.71200	774
3.72267	781
3.73333	811
3.74400	879
3.75467	996
3.76533	1160
3.77600	1342
3.78667	1501
3.79733	1615
3.80800	1663
3.81867	1656
3.82933	1600
3.84000	1512
3.85067	1413
3.86133	1317
3.87200	1263
3.88267	1306
3.89333	2195
3.90400	5785
3.91467	12803
3.92533	21445
3.93600	29395
3.94667	35420
3.95733	39334
3.96800	41520
3.97867	42495
3.98933	42693
4.00000	42430
4.01067	41888
4.02133	41163
4.03200	40315
4.04267	39398
4.05333	38395
4.06400	37331
4.07467	36240
4.08533	35127
4.09600	34008
4.10667	32873
4.11733	31742
4.12800	30617
4.13867	29486
4.14933	28345
4.16000	27230
4.17067	26118
4.18133	24988
4.19200	23897
4.20267	22827
4.21333	21756
4.22400	20706
4.23467	19663
4.24533	18637
4.25600	17639
4.26667	16640
4.27733	15664
4.28800	14729
4.29867	13786
4.30933	12857
4.32000	11968
4.33067	11091
4.34133	10232
4.35200	9405
4.36267	8601
4.37333	7844
4.38400	7116
4.39467	6409
4.40533	5748
4.41600	5133
4.42667	4570
4.43733	4060
4.44800	3596
4.45867	3155
4.46933	2759
4.48000	2423
4.49067	2130
4.50133	1872
4.51200	1636
4.52267	1437
4.53333	1267
4.54400	1120
4.55467	999
4.56533	890
4.57600	788
4.58667	693
4.59733	614
4.60800	547
4.61867	485
4.62933	435
4.64000	394
4.65067	358
4.66133	341
4.67200	339
4.68267	307
4.69333	266
4.70400	235
4.71467	189
4.72533	144
4.73600	95
4.74667	63
4.75733	49
4.76800	23
4.77867	1
4.78933	-22
4.80000	-47
4.81067	-62
4.82133	-76
4.83200	-89
4.84267	-102
4.85333	-98
4.86400	-74
4.87467	-52
4.88533	-36
4.89600	-20
4.90667	-8
4.91733	14
4.92800	44
4.93867	67
4.94933	84
4.96000	96
4.97067	99
4.98133	102
4.99200	121
5.00267	135
5.01333	142
5.02400	161
5.03467	163
5.04533	164
5.05600	173
5.06667	169
5.07733	173
5.08800	186
5.09867	190
5.10933	200
5.12000	224
5.13067	244
5.14133	262
5.15200	286
5.16267	352
5.17333	469
5.18400	631
5.19467	844
5.20533	1117
5.21600	1444
5.22667	1811
5.23733	2197
5.24800	2587
5.25867	2973
5.26933	3344
5.28000	3676
5.29067	3952
5.30133	4178
5.31200	4359
5.32267	4491
5.33333	4578
5.34400	4634
5.35467	4648
5.36533	4606
5.37600	4513
5.38667	4375
5.39733	4185
5.40800	3937
5.41867	3676
5.42933	3386
5.44000	3050
5.45067	2702
5.46133	2367
5.47200	2062
5.48267	1779
5.49333	1514
5.50400	1278
5.51467	1064
5.52533	874
5.53600	713
5.54667	558
5.55733	440
5.56800	344
5.57867	248
5.58933	183
5.60000	156
5.61067	141
5.62133	110
5.63200	92
5.64267	77
5.65333	67
5.66400	75
5.67467	88
5.68533	94
5.69600	87
5.70667	86
5.71733	94
5.72800	99
5.73867	101
5.74933	94
5.76000	95
5.77067	99
5.78133	104
5.79200	129
5.80267	143
5.81333	146
5.82400	148
5.83467	155
5.84533	159
5.85600	149
5.86667	133
5.87733	120
5.88800	136
5.89867	139
5.90933	122
5.92000	106
5.93067	90
5.94133	98
5.95200	105
5.96267	98
5.97333	87
5.98400	71
5.99467	65
6.00533	66
6.01600	67
6.02667	87
6.03733	104
6.04800	99
6.05867	103
6.06933	103
6.08000	104
6.09067	84
6.10133	61
6.11200	67
6.12267	68
6.13333	66
6.14400	57
6.15467	39
6.16533	46
6.17600	47
6.18667	23
6.19733	2
6.20800	-18
6.21867	-40
6.22933	-53
6.24000	-64
6.25067	-84
6.26133	-97
6.27200	-99
6.28267	-107
6.29333	-106
6.30400	-98
6.31467	-88
6.32533	-81
6.33600	-80
6.34667	-70
6.35733	-61
6.36800	-61
6.37867	-55
6.38933	-51
6.40000	-51
6.41067	-25
6.42133	25
6.43200	70
6.44267	101
6.45333	126
6.46400	170
6.47467	218
6.48533	267
6.49600	331
6.50667	385
6.51733	438
6.52800	495
6.53867	550
6.54933	609
6.56000	667
6.57067	728
6.58133	807
6.59200	890
6.60267	966
6.61333	1038
6.62400	1103
6.63467	1183
6.64533	1254
6.65600	1312
6.66667	1370
6.67733	1414
6.68800	1466
6.69867	1511
6.70933	1551
6.72000	1614
6.73067	1657
6.74133	1689
6.75200	1725
6.76267	1739
6.77333	1744
6.78400	1756
6.79467	1770
6.80533	1768
6.81600	1760
6.82667	1760
6.83733	1764
6.84800	1761
6.85867	1740
6.86933	1728
6.88000	1719
6.89067	1702
6.90133	1687
6.91200	1665
6.92267	1642
6.93333	1617
6.94400	1602
6.95467	1600
6.96533	1585
6.97600	1570
6.98667	1572
6.99733	1586
7.00800	1610
7.01867	1626
7.02933	1638
7.04000	1651
7.05067	1669
7.06133	1672
7.07200	1671
7.08267	1668
7.09333	1670
7.10400	1666
7.11467	1624
7.12533	1575
7.13600	1535
7.14667	1495
7.15733	1466
7.16800	1437
7.17867	1392
7.18933	1346
7.20000	1283
7.21067	1206
7.22133	1139
7.23200	1086
7.24267	1045
7.25333	1010
7.26400	964
7.27467	911
7.28533	855
7.29600	802
7.30667	757
7.31733	730
7.32800	699
7.33867	667
7.34933	648
7.36000	641
7.37067	634
7.38133	606
7.39200	577
7.40267	567
7.41333	564
7.42400	554
7.43467	527
7.44533	501
7.45600	490
7.46667	476
7.47733	461
7.48800	443
7.49867	435
7.50933	432
7.52000	409
7.53067	390
7.54133	388
7.55200	382
7.56267	362
7.57333	346
7.58400	348
7.59467	340
7.60533	317
7.61600	276
7.62667	263
7.63733	269
7.64800	272
7.65867	287
7.66933	286
7.68000	272
7.69067	243
7.70133	209
7.71200	191
7.72267	183
7.73333	174
7.74400	171
7.75467	174
7.76533	160
7.77600	139
7.78667	140
7.79733	157
7.80800	163
7.81867	163
7.82933	160
7.84000	147
7.85067	124
7.86133	111
7.87200	107
7.88267	95
7.89333	86
7.90400	92
7.91467	93
7.92533	85
7.93600	70
7.94667	68
7.95733	76
7.96800	77
7.97867	69
7.98933	57
8.00000	48
8.01067	36
8.02133	33
8.03200	36
8.04267	27
8.05333	9
8.06400	-5
8.07467	-14
8.08533	-15
8.09600	-17
8.10667	-25
8.11733	-49
8.12800	-78
8.13867	-80
8.14933	-78
8.16000	-88
8.17067	-88
8.18133	-96
8.19200	-103
8.20267	-109
8.21333	-115
8.22400	-102
8.23467	-89
8.24533	-90
8.25600	-85
8.26667	-86
8.27733	-99
8.28800	-108
8.29867	-108
8.30933	-96
8.32000	-103
8.33067	-106
8.34133	-90
8.35200	-79
8.36267	-82
8.37333	-96
8.38400	-114
8.39467	-124
8.40533	-118
8.41600	-106
8.42667	-100
8.43733	-107
8.44800	-113
8.45867	-114
8.46933	-122
8.48000	-128
8.49067	-126
8.50133	-119
8.51200	-122
8.52267	-124
8.53333	-119
8.54400	-119
8.55467	-109
8.56533	-98
8.57600	-88
8.58667	-76
8.59733	-70
8.60800	-64
8.61867	-59
8.62933	-57
8.64000	-62
8.65067	-60
8.66133	-61
8.67200	-68
8.68267	-68
8.69333	-70
8.70400	-81
8.71467	-94
8.72533	-104
8.73600	-105
8.74667	-97
8.75733	-92
8.76800	-94
8.77867	-89
8.78933	-78
8.80000	-70
8.81067	-56
8.82133	-44
8.83200	-38
8.84267	-32
8.85333	-39
8.86400	-57
8.87467	-49
8.88533	-37
8.89600	-36
8.90667	-23
8.91733	-0
8.92800	8
8.93867	8
8.94933	28
8.96000	49
8.97067	54
8.98133	59
8.99200	67
9.00267	67
9.01333	71
9.02400	76
9.03467	81
9.04533	76
9.05600	65
9.06667	82
9.07733	99
9.08800	102
9.09867	119
9.10933	137
9.12000	139
9.13067	136
9.14133	146
9.15200	145
9.16267	133
9.17333	126
9.18400	127
9.19467	132
9.20533	126
9.21600	142
9.22667	157
9.23733	163
9.24800	161
9.25867	154
9.26933	146
9.28000	156
9.29067	168
9.30133	159
9.31200	156
9.32267	154
9.33333	154
9.34400	144
9.35467	130
9.36533	125
9.37600	110
9.38667	92
9.39733	89
9.40800	96
9.41867	88
9.42933	74
9.44000	58
9.45067	43
9.46133	33
9.47200	33
9.48267	42
9.49333	39
9.50400	33
9.51467	23
9.52533	13
9.53600	9
9.54667	-2
9.55733	-12
9.56800	-19
9.57867	-26
9.58933	-40
9.60000	-53
9.61067	-61
9.62133	-63
9.63200	-55
9.64267	-50
9.65333	-39
9.66400	-25
9.67467	-31
9.68533	-30
9.69600	-41
9.70667	-49
9.71733	-49
9.72800	-58
9.73867	-48
9.74933	-34
9.76000	-36
9.77067	-44
9.78133	-38
9.79200	-30
9.80267	-39
9.81333	-36
9.82400	-23
9.83467	-34
9.84533	-50
9.85600	-62
9.86667	-69
9.87733	-60
9.88800	-67
9.89867	-71
9.90933	-62
9.92000	-57
9.93067	-58
9.94133	-67
9.95200	-55
9.96267	-55
9.97333	-70
9.98400	-75
9.99467	-84
10.00533	-92
10.01600	-96
10.02667	-94
10.03733	-95
10.04800	-101
10.05867	-116
10.06933	-130
10.08000	-120
10.09067	-112
10.10133	-121
10.11200	-135
10.12267	-149
10.13333	-144
10.14400	-135
10.15467	-129
10.16533	-143
10.17600	-154
10.18667	-135
10.19733	-131
10.20800	-131
10.21867	-121
10.22933	-133
10.24000	-147
10.25067	-152
10.26133	-150
10.27200	-142
10.28267	-152
10.29333	-166
10.30400	-160
10.31467	-149
10.32533	-149
10.33600	-150
10.34667	-140
10.35733	-137
10.36800	-152
10.37867	-161
10.38933	-158
10.40000	-169
10.41067	-183
10.42133	-180
10.43200	-178
10.44267	-193
10.45333	-202
10.46400	-205
10.47467	-204
10.48533	-208
10.49600	-227
10.50667	-240
10.51733	-247
10.52800	-249
10.53867	-255
10.54933	-263
10.56000	-258
10.57067	-249
10.58133	-249
10.59200	-255
10.60267	-253
10.61333	-254
10.62400	-274
10.63467	-301
10.64533	-311
10.65600	-308
10.66667	-304
10.67733	-292
10.68800	-286
10.69867	-283
10.70933	-271
10.72000	-264
10.73067	-266
10.74133	-257
10.75200	-252
10.76267	-258
10.77333	-260
10.78400	-264
10.79467	-270
10.80533	-267
10.81600	-252
10.82667	-236
10.83733	-221
10.84800	-206
10.85867	-190
10.86933	-175
10.88000	-167
10.89067	-153
10.90133	-140
10.91200	-143
10.92267	-124
10.93333	-92
10.94400	-81
10.95467	-69
10.96533	-45
10.97600	-21
10.98667	-6
10.99733	10
11.00800	31
11.01867	57
11.02933	65
11.04000	78
11.05067	105
11.06133	111
11.07200	116
11.08267	128
11.09333	129
11.10400	123
11.11467	132
11.12533	153
11.13600	165
11.14667	184
11.15733	195
11.16800	204
11.17867	219
11.18933	239
11.20000	255
11.21067	259
11.22133	260
11.23200	258
11.24267	278
11.25333	300
11.26400	303
11.27467	295
11.28533	288
11.29600	284
11.30667	276
11.31733	280
11.32800	289
11.33867	280
11.34933	277
11.36000	287
11.37067	306
11.38133	309
11.39200	293
11.40267	288
11.41333	298
11.42400	299
11.43467	285
11.44533	275
11.45600	266
11.46667	265
11.47733	257
11.48800	242
11.49867	241
11.50933	255
11.52000	264
11.53067	280
11.54133	298
11.55200	290
11.56267	280
11.57333	283
11.58400	290
11.59467	288
11.60533	284
11.61600	293
11.62667	309
11.63733	319
11.64800	326
11.65867	338
11.66933	347
11.68000	357
11.69067	383
11.70133	407
11.71200	407
11.72267	422
11.73333	460
11.74400	493
11.75467	516
11.76533	547
11.77600	584
11.78667	604
11.79733	625
11.80800	660
11.81867	684
11.82933	695
11.84000	723
11.85067	760
11.86133	770
11.87200	764
11.88267	765
11.89333	780
11.90400	786
11.91467	774
11.92533	766
11.93600	748
11.94667	727
11.95733	716
11.96800	690
11.97867	658
11.98933	629
12.00000	599
12.01067	577
12.02133	553
12.03200	520
12.04267	485
12.05333	452
12.06400	417
12.07467	371
12.08533	324
12.09600	290
12.10667	265
12.11733	243
12.12800	209
12.13867	179
12.14933	154
12.16000	129
12.17067	112
12.18133	101
12.19200	89
12.20267	60
12.21333	24
12.22400	4
12.23467	2
12.24533	-12
12.25600	-21
12.26667	-11
12.27733	-19
12.28800	-39
12.29867	-53
12.30933	-62
12.32000	-72
12.33067	-77
12.34133	-81
12.35200	-94
12.36267	-106
12.37333	-121
12.38400	-127
12.39467	-114
12.40533	-119
12.41600	-140
12.42667	-157
12.43733	-160
12.44800	-161
12.45867	-157
12.46933	-148
12.48000	-162
12.49067	-178
12.50133	-173
12.51200	-164
12.52267	-166
12.53333	-155
12.54400	-136
12.55467	-141
12.56533	-164
12.57600	-163
12.58667	-145
12.59733	-132
12.60800	-111
12.61867	-88
12.62933	-58
12.64000	-10
12.65067	10
12.66133	19
12.67200	61
12.68267	125
12.69333	181
12.70400	232
12.71467	292
12.72533	367
12.73600	457
12.74667	535
12.75733	616
12.76800	716
12.77867	812
12.78933	909
12.80000	1019
12.81067	1111
12.82133	1193
12.83200	1281
12.84267	1363
12.85333	1468
12.86400	1567
12.87467	1650
12.88533	1728
12.89600	1784
12.90667	1835
12.91733	1878
12.92800	1900
12.93867	1927
12.94933	1950
12.96000	1959
12.97067	1958
12.98133	1949
12.99200	1921
13.00267	1857
13.01333	1810
13.02400	1775
13.03467	1708
13.04533	1615
13.05600	1522
13.06667	1428
13.07733	1336
13.08800	1254
13.09867	1148
13.10933	1033
13.12000	927
13.13067	842
13.14133	761
13.15200	665
13.16267	593
13.17333	527
13.18400	439
13.19467	354
13.20533	276
13.21600	200
13.22667	125
13.23733	53
13.24800	-1
13.25867	-47
13.26933	-100
13.28000	-144
13.29067	-174
13.30133	-205
13.31200	-241
13.32267	-267
13.33333	-292
13.34400	-328
13.35467	-351
13.36533	-379
13.37600	-413
13.38667	-426
13.39733	-433
13.40800	-452
13.41867	-479
13.42933	-491
13.44000	-502
13.45067	-512
13.46133	-520
13.47200	-535
13.48267	-540
13.49333	-540
13.50400	-546
13.51467	-558
13.52533	-553
13.53600	-549
13.54667	-553
13.55733	-559
13.56800	-571
13.57867	-582
13.58933	-596
13.60000	-613
13.61067	-620
13.62133	-612
13.63200	-602
13.64267	-598
13.65333	-599
13.66400	-603
13.67467	-595
13.68533	-604
13.69600	-615
13.70667	-600
13.71733	-602
13.72800	-607
13.73867	-600
13.74933	-573
13.76000	-554
13.77067	-553
13.78133	-548
13.79200	-538
13.80267	-529
13.81333	-533
13.82400	-546
13.83467	-561
13.84533	-567
13.85600	-567
13.86667	-571
13.87733	-581
13.88800	-580
13.89867	-560
13.90933	-551
13.92000	-570
13.93067	-575
13.94133	-578
13.95200	-594
13.96267	-579
13.97333	-586
13.98400	-619
13.99467	-633
14.00533	-644
14.01600	-658
14.02667	-672
14.03733	-670
14.04800	-667
14.05867	-689
14.06933	-715
14.08000	-732
14.09067	-733
14.10133	-737
14.11200	-763
14.12267	-774
14.13333	-779
14.14400	-804
14.15467	-833
14.16533	-846
14.17600	-845
14.18667	-859
14.19733	-885
14.20800	-898
14.21867	-906
14.22933	-908
14.24000	-911
14.25067	-927
14.26133	-934
14.27200	-957
14.28267	-990
14.29333	-1008
14.30400	-1010
14.31467	-1007
14.32533	-1015
14.33600	-1023
14.34667	-1047
14.35733	-1046
14.36800	-1029
14.37867	-1037
14.38933	-1034
14.40000	-1046
14.41067	-1071
14.42133	-1073
14.43200	-1069
14.44267	-1085
14.45333	-1105
14.46400	-1119
14.47467	-1123
14.48533	-1114
14.49600	-1110
14.50667	-1108
14.51733	-1119
14.52800	-1146
14.53867	-1173
14.54933	-1194
14.56000	-1212
14.57067	-1218
14.58133	-1226
14.59200	-1243
14.60267	-1250
14.61333	-1251
14.62400	-1242
14.63467	-1246
14.64533	-1256
14.65600	-1267
14.66667	-1278
14.67733	-1274
14.68800	-1289
14.69867	-1294
14.70933	-1281
14.72000	-1289
14.73067	-1321
14.74133	-1339
14.75200	-1343
14.76267	-1352
14.77333	-1363
14.78400	-1377
14.79467	-1388
14.80533	-1392
14.81600	-1391
14.82667	-1410
14.83733	-1424
14.84800	-1432
14.85867	-1461
14.86933	-1470
14.88000	-1457
14.89067	-1458
14.90133	-1465
14.91200	-1471
14.92267	-1470
14.93333	-1457
14.94400	-1457
14.95467	-1465
14.96533	-1485
14.97600	-1511
14.98667	-1515
14.99733	-1516
15.00800	-1533
15.01867	-1552
15.02933	-1551
15.04000	-1538
15.05067	-1532
15.06133	-1515
15.07200	-1499
15.08267	-1512
15.09333	-1524
15.10400	-1522
15.11467	-1526
15.12533	-1538
15.13600	-1536
15.14667	-1537
15.15733	-1545
15.16800	-1548
15.17867	-1543
15.18933	-1554
15.20000	-1583
15.21067	-1576
15.22133	-1560
15.23200	-1550
15.24267	-1535
15.25333	-1521
15.26400	-1512
15.27467	-1509
15.28533	-1496
15.29600	-1481
15.30667	-1457
15.31733	-1424
15.32800	-1401
15.33867	-1401
15.34933	-1409
15.36000	-1389
15.37067	-1355
15.38133	-1320
15.39200	-1304
15.40267	-1278
15.41333	-1219
15.42400	-1173
15.43467	-1143
15.44533	-1114
15.45600	-1084
15.46667	-1053
15.47733	-1022
15.48800	-985
15.49867	-950
15.50933	-924
15.52000	-897
15.53067	-882
15.54133	-885
15.55200	-899
15.56267	-901
15.57333	-899
15.58400	-906
15.59467	-912
15.60533	-911
15.61600	-917
15.62667	-942
15.63733	-964
15.64800	-985
15.65867	-1014
15.66933	-1062
15.68000	-1103
15.69067	-1132
15.70133	-1159
15.71200	-1188
15.72267	-1236
15.73333	-1279
15.74400	-1325
15.75467	-1374
15.76533	-1419
15.77600	-1459
15.78667	-1490
15.79733	-1528
15.80800	-1571
15.81867	-1628
15.82933	-1688
15.84000	-1737
15.85067	-1779
15.86133	-1802
15.87200	-1827
15.88267	-1852
15.89333	-1883
15.90400	-1923
15.91467	-1953
15.92533	-1985
15.93600	-2016
15.94667	-2035
15.95733	-2055
15.96800	-2076
15.97867	-2109
15.98933	-2139
16.00000	-2150
16.01067	-2148
16.02133	-2158
16.03200	-2183
16.04267	-2198
16.05333	-2206
16.06400	-2208
16.07467	-2203
16.08533	-2200
16.09600	-2202
16.10667	-2205
16.11733	-2208
16.12800	-2206
16.13867	-2209
16.14933	-2210
16.16000	-2212
16.17067	-2212
16.18133	-2199
16.19200	-2191
16.20267	-2195
16.21333	-2197
16.22400	-2203
16.23467	-2208
16.24533	-2208
16.25600	-2223
16.26667	-2221
16.27733	-2200
16.28800	-2187
16.29867	-2181
16.30933	-2177
16.32000	-2175
16.33067	-2189
16.34133	-2194
16.35200	-2173
16.36267	-2162
16.37333	-2159
16.38400	-2147
16.39467	-2142
16.40533	-2140
16.41600	-2149
16.42667	-2147
16.43733	-2125
16.44800	-2112
16.45867	-2105
16.46933	-2101
16.48000	-2089
16.49067	-2073
16.50133	-2087
16.51200	-2096
16.52267	-2076
16.53333	-2054
16.54400	-2040
16.55467	-2032
16.56533	-2010
16.57600	-2006
16.58667	-2004
16.59733	-1990
16.60800	-1978
16.61867	-1973
16.62933	-1977
16.64000	-1977
16.65067	-1973
16.66133	-1957
16.67200	-1936
16.68267	-1939
16.69333	-1950
16.70400	-1943
16.71467	-1931
16.72533	-1924
16.73600	-1922
16.74667	-1921
16.75733	-1916
16.76800	-1920
16.77867	-1917
16.78933	-1911
16.80000	-1909
16.81067	-1890
16.82133	-1880
16.83200	-1891
16.84267	-1902
16.85333	-1905
16.86400	-1903
16.87467	-1906
16.88533	-1920
16.89600	-1936
16.90667	-1939
16.91733	-1940
16.92800	-1947
16.93867	-1950
16.94933	-1943
16.96000	-1938
16.97067	-1958
16.98133	-1973
16.99200	-1963
17.00267	-1968
17.01333	-1991
17.02400	-1992
17.03467	-1990
17.04533	-2009
17.05600	-2027
17.06667	-2045
17.07733	-2058
17.08800	-2058
17.09867	-2060
17.10933	-2076
17.12000	-2082
17.13067	-2078
17.14133	-2090
17.15200	-2113
17.16267	-2123
17.17333	-2138
17.18400	-2173
17.19467	-2196
17.20533	-2191
17.21600	-2177
17.22667	-2187
17.23733	-2200
17.24800	-2205
17.25867	-2236
17.26933	-2257
17.28000	-2270
17.29067	-2297
17.30133	-2323
17.31200	-2339
17.32267	-2352
17.33333	-2366
17.34400	-2374
17.35467	-2384
17.36533	-2385
17.37600	-2390
17.38667	-2403
17.39733	-2392
17.40800	-2375
17.41867	-2376
17.42933	-2383
17.44000	-2399
17.45067	-2414
17.46133	-2419
17.47200	-2417
17.48267	-2412
17.49333	-2396
17.50400	-2383
17.51467	-2397
17.52533	-2396
17.53600	-2365
17.54667	-2341
17.55733	-2330
17.56800	-2328
17.57867	-2327
17.58933	-2325
17.60000	-2315
17.61067	-2287
17.62133	-2264
17.63200	-2242
17.64267	-2202
17.65333	-2162
17.66400	-2118
17.67467	-2079
17.68533	-2043
17.69600	-2017
17.70667	-1989
17.71733	-1957
17.72800	-1944
17.73867	-1919
17.74933	-1879
17.76000	-1857
17.77067	-1839
17.78133	-1809
17.79200	-1786
17.80267	-1764
17.81333	-1744
17.82400	-1726
17.83467	-1709
17.84533	-1694
17.85600	-1690
17.86667	-1700
17.87733	-1714
17.88800	-1735
17.89867	-1758
17.90933	-1786
17.92000	-1818
17.93067	-1850
17.94133	-1873
17.95200	-1884
17.96267	-1899
17.97333	-1921
17.98400	-1962
17.99467	-2013
18.00533	-2063
18.01600	-2102
18.02667	-2142
18.03733	-2187
18.04800	-2227
18.05867	-2267
18.06933	-2306
18.08000	-2332
18.09067	-2366
18.10133	-2413
18.11200	-2442
18.12267	-2467
18.13333	-2507
18.14400	-2532
18.15467	-2556
18.16533	-2570
18.17600	-2570
18.18667	-2599
18.19733	-2636
18.20800	-2655
18.21867	-2653
18.22933	-2662
18.24000	-2666
18.25067	-2659
18.26133	-2644
18.27200	-2614
18.28267	-2592
18.29333	-2563
18.30400	-2525
18.31467	-2490
18.32533	-2457
18.33600	-2407
18.34667	-2344
18.35733	-2285
18.36800	-2197
18.37867	-2102
18.38933	-2016
18.40000	-1923
18.41067	-1814
18.42133	-1696
18.43200	-1560
18.44267	-1401
18.45333	-1247
18.46400	-1087
18.47467	-919
18.48533	-747
18.49600	-539
18.50667	-319
18.51733	-107
18.52800	110
18.53867	339
18.54933	577
18.56000	816
18.57067	1054
18.58133	1295
18.59200	1544
18.60267	1799
18.61333	2053
18.62400	2302
18.63467	2560
18.64533	2809
18.65600	3042
18.66667	3268
18.67733	3480
18.68800	3677
18.69867	3862
18.70933	4045
18.72000	4209
18.73067	4346
18.74133	4468
18.75200	4556
18.76267	4638
18.77333	4712
18.78400	4737
18.79467	4745
18.80533	4747
18.81600	4744
18.82667	4709
18.83733	4645
18.84800	4562
18.85867	4459
18.86933	4356
18.88000	4228
18.89067	4070
18.90133	3901
18.91200	3717
18.92267	3534
18.93333	3351
18.94400	3160
18.95467	2954
18.96533	2745
18.97600	2535
18.98667	2319
18.99733	2094
19.00800	1865
19.01867	1646
19.02933	1421
19.04000	1196
19.05067	966
19.06133	729
19.07200	518
19.08267	326
19.09333	134
19.10400	-31
19.11467	-199
19.12533	-376
19.13600	-540
19.14667	-686
19.15733	-832
19.16800	-983
19.17867	-1119
19.18933	-1241
19.20000	-1365
19.21067	-1490
19.22133	-1583
19.23200	-1660
19.24267	-1746
19.25333	-1834
19.26400	-1925
19.27467	-1998
19.28533	-2063
19.29600	-2137
19.30667	-2191
19.31733	-2241
19.32800	-2311
19.33867	-2374
19.34933	-2413
19.36000	-2445
19.37067	-2479
19.38133	-2514
19.39200	-2552
19.40267	-2587
19.41333	-2609
19.42400	-2625
19.43467	-2640
19.44533	-2656
19.45600	-2681
19.46667	-2691
19.47733	-2697
19.48800	-2732
19.49867	-2756
19.50933	-2764
19.52000	-2762
19.53067	-2766
19.54133	-2769
19.55200	-2757
19.56267	-2746
19.57333	-2741
19.58400	-2748
19.59467	-2749
19.60533	-2748
19.61600	-2752
19.62667	-2751
19.63733	-2745
19.64800	-2728
19.65867	-2707
19.66933	-2688
19.68000	-2678
19.69067	-2664
19.70133	-2639
19.71200	-2619
19.72267	-2590
19.73333	-2563
19.74400	-2543
19.75467	-2518
19.76533	-2479
19.77600	-2433
19.78667	-2388
19.79733	-2316
19.80800	-2236
19.81867	-2145
19.82933	-2058
19.84000	-1967
19.85067	-1831
19.86133	-1694
19.87200	-1552
19.88267	-1368
19.89333	-1152
19.90400	-913
19.91467	-639
19.92533	-310
19.93600	64
19.94667	503
19.95733	1010
19.96800	1575
19.97867	2217
19.98933	2934
20.00000	3742
20.01067	4650
20.02133	5654
20.03200	6765
20.04267	7997
20.05333	9364
20.06400	10860
20.07467	12516
20.08533	14341
20.09600	16327
20.10667	18489
20.11733	20824
20.12800	23338
20.13867	26037
20.14933	28912
20.16000	31977
20.17067	35239
20.18133	38696
20.19200	42325
20.20267	46122
20.21333	50076
20.22400	54169
20.23467	58417
20.24533	62792
20.25600	67268
20.26667	71844
20.27733	76493
20.28800	81179
20.29867	85891
20.30933	90619
20.32000	95337
20.33067	100003
20.34133	104578
20.35200	109065
20.36267	113429
20.37333	117645
20.38400	121698
20.39467	125562
20.40533	129209
20.41600	132612
20.42667	135751
20.43733	138643
20.44800	141272
20.45867	143583
20.46933	145589
20.48000	147285
20.49067	148626
20.50133	149642
20.51200	150353
20.52267	150739
20.53333	150796
20.54400	150507
20.55467	149905
20.56533	148979
20.57600	147743
20.58667	146216
20.59733	144412
20.60800	142370
20.61867	140071
20.62933	137521
20.64000	134730
20.65067	131713
20.66133	128535
20.67200	125225
20.68267	121744
20.69333	118112
20.70400	114389
20.71467	110579
20.72533	106695
20.73600	102739
20.74667	98758
20.75733	94772
20.76800	90773
20.77867	86801
20.78933	82851
20.80000	78940
20.81067	75091
20.82133	71312
20.83200	67608
20.84267	63971
20.85333	60433
20.86400	57019
20.87467	53706
20.88533	50498
20.89600	47426
20.90667	44483
20.91733	41659
20.92800	38932
20.93867	36327
20.94933	33854
20.96000	31503
20.97067	29269
20.98133	27140
20.99200	25129
21.00267	23228
21.01333	21431
21.02400	19754
21.03467	18180
21.04533	16684
21.05600	15290
21.06667	13975
21.07733	12734
21.08800	11602
21.09867	10546
21.10933	9576
21.12000	8678
21.13067	7841
21.14133	7061
21.15200	6312
21.16267	5616
21.17333	4974
21.18400	4376
21.19467	3823
21.20533	3327
21.21600	2893
21.22667	2464
21.23733	2042
21.24800	1667
21.25867	1333
21.26933	1031
21.28000	740
21.29067	470
21.30133	227
21.31200	9
21.32267	-193
21.33333	-381
21.34400	-554
21.35467	-732
21.36533	-896
21.37600	-1044
21.38667	-1188
21.39733	-1313
21.40800	-1423
21.41867	-1522
21.42933	-1599
21.44000	-1673
21.45067	-1745
21.46133	-1822
21.47200	-1906
21.48267	-1964
21.49333	-2019
21.50400	-2084
21.51467	-2135
21.52533	-2167
21.53600	-2196
21.54667	-2243
21.55733	-2280
21.56800	-2315
21.57867	-2364
21.58933	-2397
21.60000	-2424
21.61067	-2455
21.62133	-2472
21.63200	-2490
21.64267	-2511
21.65333	-2525
21.66400	-2544
21.67467	-2573
21.68533	-2598
21.69600	-2617
21.70667	-2628
21.71733	-2642
21.72800	-2666
21.73867	-2671
21.74933	-2670
21.76000	-2676
21.77067	-2667
21.78133	-2662
21.79200	-2665
21.80267	-2681
21.81333	-2701
21.82400	-2715
21.83467	-2711
21.84533	-2697
21.85600	-2699
21.86667	-2702
21.87733	-2698
21.88800	-2685
21.89867	-2692
21.90933	-2705
21.92000	-2702
21.93067	-2699
21.94133	-2698
21.95200	-2705
21.96267	-2723
21.97333	-2725
21.98400	-2710
21.99467	-2705
22.00533	-2706
22.01600	-2696
22.02667	-2684
22.03733	-2700
22.04800	-2709
22.05867	-2703
22.06933	-2722
22.08000	-2741
22.09067	-2744
22.10133	-2738
22.11200	-2735
22.12267	-2738
22.13333	-2734
22.14400	-2729
22.15467	-2723
22.16533	-2722
22.17600	-2723
22.18667	-2730
22.19733	-2757
22.20800	-2773
22.21867	-2782
22.22933	-2801
22.24000	-2812
22.25067	-2834
22.26133	-2850
22.27200	-2846
22.28267	-2857
22.29333	-2874
22.30400	-2877
22.31467	-2891
22.32533	-2911
22.33600	-2921
22.34667	-2927
22.35733	-2937
22.36800	-2935
22.37867	-2934
22.38933	-2952
22.40000	-2964
22.41067	-2964
22.42133	-2971
22.43200	-2989
22.44267	-3004
22.45333	-3016
22.46400	-3027
22.47467	-3036
22.48533	-3041
22.49600	-3042
22.50667	-3038
22.51733	-3036
22.52800	-3051
22.53867	-3076
22.54933	-3089
22.56000	-3090
22.57067	-3096
22.58133	-3105
22.59200	-3093
22.60267	-3086
22.61333	-3094
22.62400	-3096
22.63467	-3114
22.64533	-3118
22.65600	-3101
22.66667	-3097
22.67733	-3104
22.68800	-3105
22.69867	-3107
22.70933	-3125
22.72000	-3129
22.73067	-3129
22.74133	-3115
22.75200	-3109
22.76267	-3117
22.77333	-3115
22.78400	-3109
22.79467	-3106
22.80533	-3104
22.81600	-3108
22.82667	-3128
22.83733	-3137
22.84800	-3143
22.85867	-3152
22.86933	-3156
22.88000	-3161
22.89067	-3158
22.90133	-3151
22.91200	-3151
22.92267	-3140
22.93333	-3137
22.94400	-3139
22.95467	-3148
22.96533	-3162
22.97600	-3164
22.98667	-3174
22.99733	-3186
23.00800	-3168
23.01867	-3146
23.02933	-3147
23.04000	-3151
23.05067	-3153
23.06133	-3152
23.07200	-3147
23.08267	-3140
23.09333	-3139
23.10400	-3148
23.11467	-3143
23.12533	-3137
23.13600	-3142
23.14667	-3146
23.15733	-3170
23.16800	-3187
23.17867	-3199
23.18933	-3191
23.20000	-3180
23.21067	-3171
23.22133	-3169
23.23200	-3195
23.24267	-3200
23.25333	-3190
23.26400	-3184
23.27467	-3184
23.28533	-3186
23.29600	-3188
23.30667	-3183
23.31733	-3185
23.32800	-3181
23.33867	-3169
23.34933	-3176
23.36000	-3188
23.37067	-3195
23.38133	-3186
23.39200	-3194
23.40267	-3208
23.41333	-3208
23.42400	-3214
23.43467	-3207
23.44533	-3198
23.45600	-3202
23.46667	-3210
23.47733	-3214
23.48800	-3203
23.49867	-3192
23.50933	-3203
23.52000	-3214
23.53067	-3222
23.54133	-3217
23.55200	-3203
23.56267	-3210
23.57333	-3228
23.58400	-3228
23.59467	-3222
23.60533	-3224
23.61600	-3219
23.62667	-3197
23.63733	-3178
23.64800	-3164
23.65867	-3163
23.66933	-3185
23.68000	-3204
23.69067	-3218
23.70133	-3243
23.71200	-3245
23.72267	-3225
23.73333	-3227
23.74400	-3233
23.75467	-3220
23.76533	-3218
23.77600	-3222
23.78667	-3230
23.79733	-3247
23.80800	-3247
23.81867	-3238
23.82933	-3241
23.84000	-3254
23.85067	-3259
23.86133	-3254
23.87200	-3245
23.88267	-3238
23.89333	-3242
23.90400	-3240
23.91467	-3235
23.92533	-3238
23.93600	-3238
23.94667	-3243
23.95733	-3244
23.96800	-3233
23.97867	-3227
23.98933	-3233
24.00000	-3242
24.01067	-3248
24.02133	-3255
24.03200	-3262
24.04267	-3256
24.05333	-3249
24.06400	-3245
24.07467	-3232
24.08533	-3223
24.09600	-3215
24.10667	-3211
24.11733	-3228
24.12800	-3246
24.13867	-3248
24.14933	-3254
24.16000	-3250
24.17067	-3238
24.18133	-3243
24.19200	-3249
24.20267	-3252
24.21333	-3261
24.22400	-3268
24.23467	-3269
24.24533	-3267
24.25600	-3264
24.26667	-3262
24.27733	-3269
24.28800	-3278
24.29867	-3280
24.30933	-3287
24.32000	-3300
24.33067	-3307
24.34133	-3304
24.35200	-3305
24.36267	-3306
24.37333	-3296
24.38400	-3284
24.39467	-3274
24.40533	-3276
24.41600	-3282
24.42667	-3278
24.43733	-3278
24.44800	-3272
24.45867	-3271
24.46933	-3277
24.48000	-3275
24.49067	-3273
24.50133	-3279
24.51200	-3283
24.52267	-3276
24.53333	-3280
24.54400	-3294
24.55467	-3302
24.56533	-3294
24.57600	-3292
24.58667	-3289
24.59733	-3280
24.60800	-3272
24.61867	-3267
24.62933	-3280
24.64000	-3283
24.65067	-3279
24.66133	-3281
24.67200	-3281
24.68267	-3291
24.69333	-3305
24.70400	-3306
24.71467	-3310
24.72533	-3313
24.73600	-3313
24.74667	-3314
24.75733	-3314
24.76800	-3321
24.77867	-3326
24.78933	-3323
24.80000	-3322
24.81067	-3315
24.82133	-3302
24.83200	-3303
24.84267	-3307
24.85333	-3310
24.86400	-3314
24.87467	-3308
24.88533	-3292
24.89600	-3272
24.90667	-3270
24.91733	-3272
24.92800	-3261
24.93867	-3253
24.94933	-3259
24.96000	-3266
24.97067	-3261
24.98133	-3264
24.99200	-3273
25.00267	-3277
25.01333	-3278
25.02400	-3270
25.03467	-3259
25.04533	-3235
25.05600	-3218
25.06667	-3223
25.07733	-3227
25.08800	-3233
25.09867	-3239
25.10933	-3222
25.12000	-3212
25.13067	-3210
25.14133	-3206
25.15200	-3211
25.16267	-3221
25.17333	-3223
25.18400	-3215
25.19467	-3207
25.20533	-3213
25.21600	-3234
25.22667	-3244
25.23733	-3236
25.24800	-3228
25.25867	-3217
25.26933	-3206
25.28000	-3197
25.29067	-3185
25.30133	-3183
25.31200	-3200
25.32267	-3219
25.33333	-3210
25.34400	-3195
25.35467	-3190
25.36533	-3182
25.37600	-3170
25.38667	-3164
25.39733	-3158
25.40800	-3149
25.41867	-3155
25.42933	-3177
25.44000	-3181
25.45067	-3173
25.46133	-3175
25.47200	-3185
25.48267	-3191
25.49333	-3197
25.50400	-3203
25.51467	-3205
25.52533	-3211
25.53600	-3220
25.54667	-3219
25.55733	-3214
25.56800	-3217
25.57867	-3216
25.58933	-3216
25.60000	-3226
25.61067	-3225
25.62133	-3206
25.63200	-3202
25.64267	-3212
25.65333	-3213
25.66400	-3210
25.67467	-3182
25.68533	-3171
25.69600	-3189
25.70667	-3187
25.71733	-3176
25.72800	-3178
25.73867	-3191
25.74933	-3192
25.76000	-3192
25.77067	-3201
25.78133	-3208
25.79200	-3218
25.80267	-3220
25.81333	-3221
25.82400	-3233
25.83467	-3237
25.84533	-3230
25.85600	-3225
25.86667	-3237
25.87733	-3247
25.88800	-3248
25.89867	-3259
25.90933	-3256
25.92000	-3236
25.93067	-3229
25.94133	-3229
25.95200	-3214
25.96267	-3206
25.97333	-3220
25.98400	-3225
25.99467	-3224
26.00533	-3215
26.01600	-3202
26.02667	-3198
26.03733	-3201
26.04800	-3196
26.05867	-3197
26.06933	-3205
26.08000	-3214
26.09067	-3216
26.10133	-3211
26.11200	-3213
26.12267	-3208
26.13333	-3198
26.14400	-3178
26.15467	-3170
26.16533	-3172
26.17600	-3168
26.18667	-3177
26.19733	-3195
26.20800	-3204
26.21867	-3208
26.22933	-3218
26.24000	-3208
26.25067	-3201
26.26133	-3203
26.27200	-3207
26.28267	-3216
26.29333	-3207
26.30400	-3204
26.31467	-3214
26.32533	-3209
26.33600	-3201
26.34667	-3209
26.35733	-3205
26.36800	-3189
26.37867	-3182
26.38933	-3176
26.40000	-3187
26.41067	-3199
26.42133	-3196
26.43200	-3196
26.44267	-3197
26.45333	-3180
26.46400	-3168
26.47467	-3174
26.48533	-3186
26.49600	-3203
26.50667	-3222
26.51733	-3227
26.52800	-3220
26.53867	-3214
26.54933	-3209
26.56000	-3212
26.57067	-3210
26.58133	-3196
26.59200	-3191
26.60267	-3196
26.61333	-3194
26.62400	-3192
26.63467	-3183
26.64533	-3179
26.65600	-3180
26.66667	-3172
26.67733	-3163
26.68800	-3172
26.69867	-3191
26.70933	-3185
26.72000	-3187
26.73067	-3202
26.74133	-3206
26.75200	-3205
26.76267	-3202
26.77333	-3207
26.78400	-3221
26.79467	-3219
26.80533	-3217
26.81600	-3228
26.82667	-3228
26.83733	-3224
26.84800	-3228
26.85867	-3231
26.86933	-3236
26.88000	-3233
26.89067	-3230
26.90133	-3224
26.91200	-3200
26.92267	-3190
26.93333	-3206
26.94400	-3219
26.95467	-3219
26.96533	-3213
26.97600	-3202
26.98667	-3206
26.99733	-3210
27.00800	-3203
27.01867	-3192
27.02933	-3193
27.04000	-3200
27.05067	-3201
27.06133	-3194
27.07200	-3182
27.08267	-3194
27.09333	-3223
27.10400	-3222
27.11467	-3213
27.12533	-3221
27.13600	-3216
27.14667	-3216
27.15733	-3219
27.16800	-3199
27.17867	-3201
27.18933	-3210
27.20000	-3210
27.21067	-3215
27.22133	-3202
27.23200	-3190
27.24267	-3193
27.25333	-3187
27.26400	-3180
27.27467	-3188
27.28533	-3179
27.29600	-3165
27.30667	-3181
27.31733	-3190
27.32800	-3188
27.33867	-3199
27.34933	-3192
27.36000	-3179
27.37067	-3179
27.38133	-3185
27.39200	-3199
27.40267	-3201
27.41333	-3195
27.42400	-3182
27.43467	-3186
27.44533	-3193
27.45600	-3189
27.46667	-3185
27.47733	-3176
27.48800	-3161
27.49867	-3154
27.50933	-3158
27.52000	-3161
27.53067	-3164
27.54133	-3156
27.55200	-3153
27.56267	-3169
27.57333	-3183
27.58400	-3186
27.59467	-3181
27.60533	-3179
27.61600	-3182
27.62667	-3172
27.63733	-3162
27.64800	-3165
27.65867	-3164
27.66933	-3156
27.68000	-3145
27.69067	-3145
27.70133	-3171
27.71200	-3187
27.72267	-3176
27.73333	-3165
27.74400	-3158
27.75467	-3159
27.76533	-3164
27.77600	-3156
27.78667	-3145
27.79733	-3161
27.80800	-3170
27.81867	-3173
27.82933	-3188
27.84000	-3201
27.85067	-3191
27.86133	-3173
27.87200	-3180
27.88267	-3180
27.89333	-3165
27.90400	-3153
27.91467	-3157
27.92533	-3156
27.93600	-3148
27.94667	-3160
27.95733	-3184
27.96800	-3185
27.97867	-3179
27.98933	-3179
28.00000	-3181
28.01067	-3180
28.02133	-3166
28.03200	-3165
28.04267	-3173
28.05333	-3171
28.06400	-3175
28.07467	-3182
28.08533	-3186
28.09600	-3177
28.10667	-3170
28.11733	-3171
28.12800	-3186
28.13867	-3208
28.14933	-3219
28.16000	-3231
28.17067	-3240
28.18133	-3235
28.19200	-3223
28.20267	-3225
28.21333	-3222
28.22400	-3219
28.23467	-3202
28.24533	-3181
28.25600	-3190
28.26667	-3184
28.27733	-3166
28.28800	-3169
28.29867	-3171
28.30933	-3171
28.32000	-3179
28.33067	-3187
28.34133	-3189
28.35200	-3192
28.36267	-3202
28.37333	-3207
28.38400	-3202
28.39467	-3193
28.40533	-3192
28.41600	-3189
28.42667	-3177
28.43733	-3171
28.44800	-3173
28.45867	-3186
28.46933	-3199
28.48000	-3210
28.49067	-3218
28.50133	-3202
28.51200	-3187
28.52267	-3195
28.53333	-3209
28.54400	-3209
28.55467	-3194
28.56533	-3169
28.57600	-3167
28.58667	-3180
28.59733	-3179
28.60800	-3176
28.61867	-3176
28.62933	-3184
28.64000	-3190
28.65067	-3196
28.66133	-3197
28.67200	-3188
28.68267	-3189
28.69333	-3184
28.70400	-3168
28.71467	-3162
28.72533	-3175
28.73600	-3190
28.74667	-3183
28.75733	-3182
28.76800	-3178
28.77867	-3159
28.78933	-3140
28.80000	-3143
28.81067	-3157
28.82133	-3162
28.83200	-3179
28.84267	-3184
28.85333	-3182
28.86400	-3189
28.87467	-3190
28.88533	-3195
28.89600	-3192
28.90667	-3186
28.91733	-3190
28.92800	-3197
28.93867	-3196
28.94933	-3182
28.96000	-3169
28.97067	-3160
28.98133	-3159
28.99200	-3157
29.00267	-3154
29.01333	-3146
29.02400	-3136
29.03467	-3132
29.04533	-3132
29.05600	-3142
29.06667	-3143
29.07733	-3141
29.08800	-3137
29.09867	-3140
29.10933	-3149
29.12000	-3149
29.13067	-3154
29.14133	-3157
29.15200	-3151
29.16267	-3154
29.17333	-3165
29.18400	-3162
29.19467	-3137
29.20533	-3128
29.21600	-3138
29.22667	-3135
29.23733	-3139
29.24800	-3149
29.25867	-3141
29.26933	-3127
29.28000	-3116
29.29067	-3113
29.30133	-3103
29.31200	-3097
29.32267	-3099
29.33333	-3092
29.34400	-3087
29.35467	-3085
29.36533	-3084
29.37600	-3093
29.38667	-3110
29.39733	-3114
29.40800	-3099
29.41867	-3086
29.42933	-3075
29.44000	-3075
29.45067	-3086
29.46133	-3088
29.47200	-3104
29.48267	-3118
29.49333	-3103
29.50400	-3093
29.51467	-3102
29.52533	-3087
29.53600	-3072
29.54667	-3082
29.55733	-3083
29.56800	-3091
29.57867	-3092
29.58933	-3087
29.60000	-3100
29.61067	-3116
29.62133	-3105
29.63200	-3090
29.64267	-3076
29.65333	-3055
29.66400	-3050
29.67467	-3049
29.68533	-3055
29.69600	-3060
29.70667	-3047
29.71733	-3033
29.72800	-3018
29.73867	-3005
29.74933	-3005
29.76000	-2997
29.77067	-2977
29.78133	-2961
29.79200	-2939
29.80267	-2922
29.81333	-2911
29.82400	-2896
29.83467	-2868
29.84533	-2833
29.85600	-2804
29.86667	-2775
29.87733	-2746
29.88800	-2695
29.89867	-2636
29.90933	-2581
29.92000	-2514
29.93067	-2431
29.94133	-2354
29.95200	-2282
29.96267	-2184
29.97333	-2089
29.98400	-2001
29.99467	-1904
30.00533	-1774
30.01600	-1623
30.02667	-1488
30.03733	-1344
30.04800	-1179
30.05867	-988
30.06933	-790
30.08000	-580
30.09067	-347
30.10133	-106
30.11200	150
30.12267	431
30.13333	730
30.14400	1051
30.15467	1391
30.16533	1736
30.17600	2090
30.18667	2481
30.19733	2926
30.20800	3400
30.21867	3877
30.22933	4366
30.24000	4891
30.25067	5439
30.26133	6011
30.27200	6621
30.28267	7248
30.29333	7881
30.30400	8545
30.31467	9238
30.32533	9957
30.33600	10704
30.34667	11455
30.35733	12222
30.36800	13015
30.37867	13827
30.38933	14653
30.40000	15486
30.41067	16338
30.42133	17213
30.43200	18098
30.44267	18982
30.45333	19866
30.46400	20749
30.47467	21636
30.48533	22532
30.49600	23428
30.50667	24309
30.51733	25194
30.52800	26075
30.53867	26928
30.54933	27752
30.56000	28550
30.57067	29336
30.58133	30110
30.59200	30868
30.60267	31598
30.61333	32288
30.62400	32941
30.63467	33553
30.64533	34141
30.65600	34694
30.66667	35207
30.67733	35674
30.68800	36089
30.69867	36473
30.70933	36820
30.72000	37128
30.73067	37371
30.74133	37565
30.75200	37731
30.76267	37838
30.77333	37887
30.78400	37895
30.79467	37860
30.80533	37786
30.81600	37661
30.82667	37476
30.83733	37256
30.84800	37014
30.85867	36727
30.86933	36397
30.88000	36016
30.89067	35582
30.90133	35144
30.91200	34682
30.92267	34175
30.93333	33639
30.94400	33066
30.95467	32461
30.96533	31834
30.97600	31193
30.98667	30534
30.99733	29862
31.00800	29183
31.01867	28475
31.02933	27753
31.04000	27016
31.05067	26268
31.06133	25524
31.07200	24773
31.08267	24004
31.09333	23228
31.10400	22465
31.11467	21702
31.12533	20941
31.13600	20199
31.14667	19474
31.15733	18755
31.16800	18042
31.17867	17333
31.18933	16629
31.20000	15927
31.21067	15250
31.22133	14597
31.23200	13951
31.24267	13321
31.25333	12693
31.26400	12072
31.27467	11470
31.28533	10871
31.29600	10289
31.30667	9725
31.31733	9169
31.32800	8637
31.33867	8134
31.34933	7654
31.36000	7191
31.37067	6734
31.38133	6300
31.39200	5885
31.40267	5480
31.41333	5088
31.42400	4702
31.43467	4336
31.44533	3995
31.45600	3662
31.46667	3335
31.47733	3016
31.48800	2716
31.49867	2446
31.50933	2187
31.52000	1921
31.53067	1666
31.54133	1425
31.55200	1196
31.56267	974
31.57333	774
31.58400	598
31.59467	420
31.60533	244
31.61600	76
31.62667	-100
31.63733	-277
31.64800	-426
31.65867	-557
31.66933	-698
31.68000	-824
31.69067	-934
31.70133	-1026
31.71200	-1124
31.72267	-1234
31.73333	-1322
31.74400	-1402
31.75467	-1473
31.76533	-1552
31.77600	-1626
31.78667	-1699
31.79733	-1787
31.80800	-1864
31.81867	-1931
31.82933	-1990
31.84000	-2036
31.85067	-2084
31.86133	-2133
31.87200	-2182
31.88267	-2233
31.89333	-2269
31.90400	-2298
31.91467	-2331
31.92533	-2359
31.93600	-2395
31.94667	-2442
31.95733	-2479
31.96800	-2505
31.97867	-2529
31.98933	-2554
32.00000	-2581
32.01067	-2604
32.02133	-2626
32.03200	-2647
32.04267	-2661
32.05333	-2671
32.06400	-2677
32.07467	-2687
32.08533	-2684
32.09600	-2690
32.10667	-2709
32.11733	-2730
32.12800	-2768
32.13867	-2789
32.14933	-2792
32.16000	-2784
32.17067	-2779
32.18133	-2778
32.19200	-2774
32.20267	-2782
32.21333	-2790
32.22400	-2801
32.23467	-2802
32.24533	-2788
32.25600	-2794
32.26667	-2801
32.27733	-2789
32.28800	-2774
32.29867	-2776
32.30933	-2776
32.32000	-2767
32.33067	-2761
32.34133	-2761
32.35200	-2772
32.36267	-2777
32.37333	-2771
32.38400	-2752
32.39467	-2737
32.40533	-2749
32.41600	-2747
32.42667	-2734
32.43733	-2732
32.44800	-2738
32.45867	-2742
32.46933	-2736
32.48000	-2724
32.49067	-2716
32.50133	-2719
32.51200	-2717
32.52267	-2713
32.53333	-2705
32.54400	-2700
32.55467	-2702
32.56533	-2696
32.57600	-2699
32.58667	-2699
32.59733	-2698
32.60800	-2693
32.61867	-2675
32.62933	-2678
32.64000	-2680
32.65067	-2679
32.66133	-2682
32.67200	-2676
32.68267	-2682
32.69333	-2695
32.70400	-2693
32.71467	-2686
32.72533	-2687
32.73600	-2690
32.74667	-2693
32.75733	-2708
32.76800	-2718
32.77867	-2705
32.78933	-2697
32.80000	-2689
32.81067	-2676
32.82133	-2682
32.83200	-2695
32.84267	-2704
32.85333	-2710
32.86400	-2723
32.87467	-2746
32.88533	-2768
32.89600	-2777
32.90667	-2773
32.91733	-2768
32.92800	-2770
32.93867	-2778
32.94933	-2782
32.96000	-2781
32.97067	-2779
32.98133	-2782
32.99200	-2791
33.00267	-2808
33.01333	-2824
33.02400	-2825
33.03467	-2828
33.04533	-2832
33.05600	-2827
33.06667	-2845
33.07733	-2859
33.08800	-2847
33.09867	-2850
33.10933	-2859
33.12000	-2857
33.13067	-2853
33.14133	-2851
33.15200	-2854
33.16267	-2873
33.17333	-2881
33.18400	-2870
33.19467	-2864
33.20533	-2858
33.21600	-2853
33.22667	-2861
33.23733	-2872
33.24800	-2893
33.25867	-2893
33.26933	-2884
33.28000	-2881
33.29067	-2878
33.30133	-2881
33.31200	-2891
33.32267	-2886
33.33333	-2880
33.34400	-2884
33.35467	-2887
33.36533	-2888
33.37600	-2887
33.38667	-2879
33.39733	-2863
33.40800	-2858
33.41867	-2862
33.42933	-2868
33.44000	-2858
33.45067	-2843
33.46133	-2835
33.47200	-2826
33.48267	-2815
33.49333	-2802
33.50400	-2790
33.51467	-2782
33.52533	-2758
33.53600	-2727
33.54667	-2727
33.55733	-2722
33.56800	-2716
33.57867	-2715
33.58933	-2688
33.60000	-2660
33.61067	-2640
33.62133	-2610
33.63200	-2573
33.64267	-2558
33.65333	-2543
33.66400	-2516
33.67467	-2491
33.68533	-2467
33.69600	-2439
33.70667	-2408
33.71733	-2377
33.72800	-2340
33.73867	-2305
33.74933	-2267
33.76000	-2226
33.77067	-2179
33.78133	-2134
33.79200	-2097
33.80267	-2067
33.81333	-2035
33.82400	-1997
33.83467	-1958
33.84533	-1920
33.85600	-1886
33.86667	-1834
33.87733	-1772
33.88800	-1717
33.89867	-1673
33.90933	-1621
33.92000	-1565
33.93067	-1493
33.94133	-1414
33.95200	-1362
33.96267	-1306
33.97333	-1251
33.98400	-1204
33.99467	-1160
34.00533	-1124
34.01600	-1089
34.02667	-1060
34.03733	-1018
34.04800	-967
34.05867	-923
34.06933	-859
34.08000	-801
34.09067	-760
34.10133	-725
34.11200	-694
34.12267	-656
34.13333	-617
34.14400	-586
34.15467	-561
34.16533	-541
34.17600	-516
34.18667	-478
34.19733	-441
34.20800	-416
34.21867	-394
34.22933	-368
34.24000	-361
34.25067	-349
34.26133	-331
34.27200	-314
34.28267	-304
34.29333	-304
34.30400	-292
34.31467	-284
34.32533	-289
34.33600	-307
34.34667	-320
34.35733	-323
34.36800	-336
34.37867	-357
34.38933	-378
34.40000	-394
34.41067	-422
34.42133	-457
34.43200	-479
34.44267	-502
34.45333	-546
34.46400	-588
34.47467	-616
34.48533	-652
34.49600	-702
34.50667	-745
34.51733	-790
34.52800	-839
34.53867	-872
34.54933	-913
34.56000	-961
34.57067	-1003
34.58133	-1047
34.59200	-1093
34.60267	-1141
34.61333	-1187
34.62400	-1244
34.63467	-1310
34.64533	-1365
34.65600	-1419
34.66667	-1470
34.67733	-1530
34.68800	-1583
34.69867	-1623
34.70933	-1649
34.72000	-1693
34.73067	-1769
34.74133	-1831
34.75200	-1893
34.76267	-1946
34.77333	-1977
34.78400	-2020
34.79467	-2078
34.80533	-2124
34.81600	-2164
34.82667	-2206
34.83733	-2234
34.84800	-2260
34.85867	-2299
34.86933	-2340
34.88000	-2372
34.89067	-2397
34.90133	-2437
34.91200	-2482
34.92267	-2527
34.93333	-2557
34.94400	-2589
34.95467	-2618
34.96533	-2644
34.97600	-2675
34.98667	-2684
34.99733	-2697
35.00800	-2737


