[Header]
Application Name	LabSolutions
Version	5.117
Data File Name	C:\LabSolutions\Data\COLUMN_QC\28-09-2023_C18\Data\Tanaka_MixA.lcd
Output Date	12/7/2023
Output Time	2:49:47 PM

[File Information]
Type	Data File
Generated	9/28/2023 2:25:47 PM
Generated by	user
Modified	9/28/2023 2:59:19 PM
Modified by	user

[Sample Information]
Operator Name	user
Acquired	9/28/2023 2:29:17 PM
Sample Type	0:Unknown
Level	0
Sample Name	Tanaka_MixA
Sample ID	Tanaka_MixA
ISTD Amount1	1
ISTD Amount2	1
ISTD Amount3	1
ISTD Amount4	1
ISTD Amount5	1
ISTD Amount6	1
ISTD Amount7	1
ISTD Amount8	1
ISTD Amount9	1
ISTD Amount10	1
ISTD Amount11	1
ISTD Amount12	1
ISTD Amount13	1
ISTD Amount14	1
ISTD Amount15	1
ISTD Amount16	1
ISTD Amount17	1
ISTD Amount18	1
ISTD Amount19	1
ISTD Amount20	1
ISTD Amount21	1
ISTD Amount22	1
ISTD Amount23	1
ISTD Amount24	1
ISTD Amount25	1
ISTD Amount26	1
ISTD Amount27	1
ISTD Amount28	1
ISTD Amount29	1
ISTD Amount30	1
ISTD Amount31	1
ISTD Amount32	1
Sample Amount	1
Dilution Factor	1
Vial#	1
Injection Volume	10

[Original Files]
Data File	C:\LabSolutions\Data\COLUMN_QC\28-09-2023_C18\Data\Tanaka_MixA.lcd
Method File	C:\LabSolutions\Data\Main Methods\Tanaka_mixAB_28-09-2023.lcm
Batch File	C:\LabSolutions\Data\COLUMN_QC\28-09-2023_C18\Batches\C18_RefColumn_28-09-2023.lcb
Report Format File	C:\LabSolutions\System\DEFAULT.lsr

[File Description]


[Configuration]
Instrument Name	HPLC
Instrument #	1
Line #	1
# of Detectors	1
Detector ID	PDA
Detector Name	PDA
# of Channels	1

[Peak Table(PDA-Ch1)]
# of Peaks	3
Peak#	R.Time	I.Time	F.Time	Area	Height	A/H	Conc.	Mark	ID#	Name	k'	Plate #	Plate Ht.	Tailing	Resolution	Sep.Factor	Area Ratio	Height Ratio	Conc. %	Norm Conc.
1	2.689	2.485	3.872	11551485	1704605	6.777	0.000	   			0.000	3026	49.562	0.886	0.000	0.000	0	0	0.000	0.000
2	16.835	16.416	17.440	303376	16345	18.560	0.000	   			5.261	18158	8.261	1.060	40.693	0.000	0	0	0.000	0.000
3	18.464	17.952	19.371	368430	17329	21.260	0.000	   			5.866	16916	8.867	1.068	3.053	1.115	0	0	0.000	0.000

[Compound Results(PDA)]
# of IDs	0

[PDA Multi Chromatogram(Ch1)]
# of Points	      2814
Interval(msec)	640
Start Time(min)	0
End Time(min)	30.0053
Intensity Units	mAU
Intensity Multiplier	1
Type	MultiChrom
Wavelength(nm)	254
Bandwidth(nm)	4
R.Time (min)	Intensity
0.00000	0
0.01067	0
0.02133	0
0.03200	0
0.04267	-3
0.05333	-7
0.06400	-10
0.07467	-13
0.08533	-18
0.09600	-23
0.10667	-28
0.11733	-33
0.12800	-36
0.13867	-39
0.14933	-43
0.16000	-46
0.17067	-50
0.18133	-55
0.19200	-59
0.20267	-63
0.21333	-67
0.22400	-72
0.23467	-75
0.24533	-80
0.25600	-86
0.26667	-89
0.27733	-93
0.28800	-98
0.29867	-103
0.30933	-106
0.32000	-109
0.33067	-113
0.34133	-116
0.35200	-120
0.36267	-125
0.37333	-130
0.38400	-134
0.39467	-139
0.40533	-143
0.41600	-147
0.42667	-152
0.43733	-156
0.44800	-160
0.45867	-164
0.46933	-167
0.48000	-172
0.49067	-176
0.50133	-181
0.51200	-184
0.52267	-189
0.53333	-193
0.54400	-198
0.55467	-202
0.56533	-206
0.57600	-210
0.58667	-215
0.59733	-220
0.60800	-225
0.61867	-229
0.62933	-233
0.64000	-237
0.65067	-241
0.66133	-244
0.67200	-248
0.68267	-252
0.69333	-255
0.70400	-260
0.71467	-264
0.72533	-268
0.73600	-273
0.74667	-278
0.75733	-281
0.76800	-285
0.77867	-290
0.78933	-294
0.80000	-298
0.81067	-301
0.82133	-306
0.83200	-310
0.84267	-314
0.85333	-318
0.86400	-322
0.87467	-326
0.88533	-331
0.89600	-334
0.90667	-338
0.91733	-342
0.92800	-347
0.93867	-351
0.94933	-354
0.96000	-357
0.97067	-361
0.98133	-366
0.99200	-371
1.00267	-376
1.01333	-380
1.02400	-384
1.03467	-388
1.04533	-392
1.05600	-395
1.06667	-399
1.07733	-403
1.08800	-407
1.09867	-411
1.10933	-416
1.12000	-421
1.13067	-425
1.14133	-428
1.15200	-433
1.16267	-438
1.17333	-443
1.18400	-448
1.19467	-452
1.20533	-455
1.21600	-458
1.22667	-463
1.23733	-467
1.24800	-470
1.25867	-474
1.26933	-477
1.28000	-480
1.29067	-485
1.30133	-490
1.31200	-494
1.32267	-498
1.33333	-501
1.34400	-503
1.35467	-506
1.36533	-506
1.37600	-506
1.38667	-506
1.39733	-504
1.40800	-500
1.41867	-496
1.42933	-490
1.44000	-484
1.45067	-477
1.46133	-469
1.47200	-463
1.48267	-460
1.49333	-464
1.50400	-473
1.51467	-486
1.52533	-503
1.53600	-519
1.54667	-533
1.55733	-546
1.56800	-557
1.57867	-565
1.58933	-574
1.60000	-581
1.61067	-587
1.62133	-592
1.63200	-598
1.64267	-602
1.65333	-608
1.66400	-613
1.67467	-617
1.68533	-623
1.69600	-628
1.70667	-632
1.71733	-637
1.72800	-641
1.73867	-645
1.74933	-649
1.76000	-653
1.77067	-657
1.78133	-661
1.79200	-665
1.80267	-670
1.81333	-675
1.82400	-679
1.83467	-683
1.84533	-687
1.85600	-690
1.86667	-694
1.87733	-698
1.88800	-702
1.89867	-705
1.90933	-709
1.92000	-713
1.93067	-717
1.94133	-721
1.95200	-725
1.96267	-729
1.97333	-734
1.98400	-738
1.99467	-741
2.00533	-746
2.01600	-750
2.02667	-754
2.03733	-757
2.04800	-760
2.05867	-764
2.06933	-768
2.08000	-771
2.09067	-774
2.10133	-778
2.11200	-782
2.12267	-787
2.13333	-791
2.14400	-795
2.15467	-798
2.16533	-802
2.17600	-806
2.18667	-810
2.19733	-814
2.20800	-818
2.21867	-820
2.22933	-823
2.24000	-827
2.25067	-832
2.26133	-836
2.27200	-839
2.28267	-842
2.29333	-846
2.30400	-851
2.31467	-854
2.32533	-858
2.33600	-861
2.34667	-864
2.35733	-868
2.36800	-871
2.37867	-874
2.38933	-878
2.40000	-882
2.41067	-887
2.42133	-892
2.43200	-897
2.44267	-900
2.45333	-904
2.46400	-907
2.47467	-910
2.48533	-913
2.49600	-901
2.50667	-363
2.51733	4165
2.52800	19592
2.53867	51913
2.54933	104527
2.56000	175289
2.57067	252030
2.58133	319736
2.59200	376622
2.60267	440221
2.61333	531193
2.62400	653316
2.63467	799596
2.64533	970991
2.65600	1173242
2.66667	1400667
2.67733	1607548
2.68800	1703629
2.69867	1638367
2.70933	1445794
2.72000	1190844
2.73067	927977
2.74133	691134
2.75200	495880
2.76267	345043
2.77333	234223
2.78400	155940
2.79467	102317
2.80533	66443
2.81600	42860
2.82667	27547
2.83733	17680
2.84800	11345
2.85867	7282
2.86933	4668
2.88000	2976
2.89067	1870
2.90133	1137
2.91200	640
2.92267	298
2.93333	55
2.94400	-121
2.95467	-255
2.96533	-358
2.97600	-440
2.98667	-507
2.99733	-561
3.00800	-605
3.01867	-639
3.02933	-666
3.04000	-689
3.05067	-711
3.06133	-734
3.07200	-758
3.08267	-782
3.09333	-809
3.10400	-834
3.11467	-858
3.12533	-880
3.13600	-900
3.14667	-917
3.15733	-931
3.16800	-945
3.17867	-959
3.18933	-972
3.20000	-984
3.21067	-996
3.22133	-1005
3.23200	-1013
3.24267	-1022
3.25333	-1031
3.26400	-1039
3.27467	-1048
3.28533	-1058
3.29600	-1068
3.30667	-1078
3.31733	-1088
3.32800	-1097
3.33867	-1105
3.34933	-1112
3.36000	-1117
3.37067	-1121
3.38133	-1125
3.39200	-1128
3.40267	-1131
3.41333	-1137
3.42400	-1143
3.43467	-1148
3.44533	-1153
3.45600	-1159
3.46667	-1164
3.47733	-1170
3.48800	-1175
3.49867	-1180
3.50933	-1185
3.52000	-1190
3.53067	-1195
3.54133	-1200
3.55200	-1204
3.56267	-1208
3.57333	-1213
3.58400	-1218
3.59467	-1224
3.60533	-1229
3.61600	-1235
3.62667	-1241
3.63733	-1247
3.64800	-1253
3.65867	-1258
3.66933	-1264
3.68000	-1271
3.69067	-1277
3.70133	-1283
3.71200	-1288
3.72267	-1293
3.73333	-1298
3.74400	-1301
3.75467	-1306
3.76533	-1311
3.77600	-1315
3.78667	-1317
3.79733	-1319
3.80800	-1323
3.81867	-1327
3.82933	-1331
3.84000	-1335
3.85067	-1340
3.86133	-1344
3.87200	-1349
3.88267	-1352
3.89333	-1354
3.90400	-1356
3.91467	-1359
3.92533	-1362
3.93600	-1365
3.94667	-1366
3.95733	-1367
3.96800	-1368
3.97867	-1370
3.98933	-1373
4.00000	-1377
4.01067	-1381
4.02133	-1386
4.03200	-1392
4.04267	-1398
4.05333	-1405
4.06400	-1410
4.07467	-1415
4.08533	-1421
4.09600	-1426
4.10667	-1430
4.11733	-1435
4.12800	-1440
4.13867	-1445
4.14933	-1451
4.16000	-1456
4.17067	-1460
4.18133	-1464
4.19200	-1468
4.20267	-1472
4.21333	-1476
4.22400	-1481
4.23467	-1485
4.24533	-1489
4.25600	-1494
4.26667	-1497
4.27733	-1500
4.28800	-1503
4.29867	-1507
4.30933	-1510
4.32000	-1514
4.33067	-1518
4.34133	-1521
4.35200	-1523
4.36267	-1526
4.37333	-1530
4.38400	-1534
4.39467	-1538
4.40533	-1541
4.41600	-1543
4.42667	-1546
4.43733	-1551
4.44800	-1556
4.45867	-1559
4.46933	-1563
4.48000	-1567
4.49067	-1571
4.50133	-1575
4.51200	-1580
4.52267	-1584
4.53333	-1588
4.54400	-1590
4.55467	-1594
4.56533	-1598
4.57600	-1602
4.58667	-1606
4.59733	-1608
4.60800	-1611
4.61867	-1614
4.62933	-1617
4.64000	-1619
4.65067	-1623
4.66133	-1626
4.67200	-1627
4.68267	-1628
4.69333	-1628
4.70400	-1628
4.71467	-1627
4.72533	-1626
4.73600	-1622
4.74667	-1618
4.75733	-1614
4.76800	-1609
4.77867	-1602
4.78933	-1596
4.80000	-1588
4.81067	-1582
4.82133	-1576
4.83200	-1570
4.84267	-1567
4.85333	-1563
4.86400	-1560
4.87467	-1559
4.88533	-1559
4.89600	-1559
4.90667	-1560
4.91733	-1561
4.92800	-1564
4.93867	-1567
4.94933	-1568
4.96000	-1568
4.97067	-1568
4.98133	-1567
4.99200	-1566
5.00267	-1563
5.01333	-1562
5.02400	-1563
5.03467	-1566
5.04533	-1572
5.05600	-1580
5.06667	-1591
5.07733	-1602
5.08800	-1615
5.09867	-1629
5.10933	-1642
5.12000	-1655
5.13067	-1666
5.14133	-1676
5.15200	-1687
5.16267	-1697
5.17333	-1707
5.18400	-1716
5.19467	-1724
5.20533	-1731
5.21600	-1739
5.22667	-1746
5.23733	-1752
5.24800	-1758
5.25867	-1763
5.26933	-1770
5.28000	-1777
5.29067	-1784
5.30133	-1790
5.31200	-1795
5.32267	-1800
5.33333	-1807
5.34400	-1812
5.35467	-1817
5.36533	-1820
5.37600	-1825
5.38667	-1830
5.39733	-1835
5.40800	-1840
5.41867	-1845
5.42933	-1848
5.44000	-1852
5.45067	-1857
5.46133	-1862
5.47200	-1866
5.48267	-1870
5.49333	-1875
5.50400	-1878
5.51467	-1881
5.52533	-1884
5.53600	-1888
5.54667	-1893
5.55733	-1897
5.56800	-1901
5.57867	-1905
5.58933	-1909
5.60000	-1911
5.61067	-1914
5.62133	-1918
5.63200	-1922
5.64267	-1926
5.65333	-1931
5.66400	-1935
5.67467	-1939
5.68533	-1943
5.69600	-1948
5.70667	-1951
5.71733	-1953
5.72800	-1955
5.73867	-1958
5.74933	-1962
5.76000	-1965
5.77067	-1968
5.78133	-1971
5.79200	-1974
5.80267	-1978
5.81333	-1982
5.82400	-1986
5.83467	-1990
5.84533	-1993
5.85600	-1995
5.86667	-1996
5.87733	-1996
5.88800	-1997
5.89867	-2000
5.90933	-2001
5.92000	-2001
5.93067	-2001
5.94133	-2002
5.95200	-2005
5.96267	-2007
5.97333	-2010
5.98400	-2015
5.99467	-2020
6.00533	-2027
6.01600	-2033
6.02667	-2040
6.03733	-2047
6.04800	-2053
6.05867	-2058
6.06933	-2064
6.08000	-2070
6.09067	-2075
6.10133	-2079
6.11200	-2083
6.12267	-2087
6.13333	-2092
6.14400	-2095
6.15467	-2099
6.16533	-2104
6.17600	-2108
6.18667	-2111
6.19733	-2114
6.20800	-2117
6.21867	-2120
6.22933	-2123
6.24000	-2126
6.25067	-2129
6.26133	-2132
6.27200	-2134
6.28267	-2136
6.29333	-2139
6.30400	-2142
6.31467	-2146
6.32533	-2148
6.33600	-2150
6.34667	-2154
6.35733	-2157
6.36800	-2160
6.37867	-2163
6.38933	-2166
6.40000	-2170
6.41067	-2174
6.42133	-2178
6.43200	-2180
6.44267	-2182
6.45333	-2185
6.46400	-2188
6.47467	-2192
6.48533	-2194
6.49600	-2198
6.50667	-2203
6.51733	-2208
6.52800	-2212
6.53867	-2215
6.54933	-2218
6.56000	-2221
6.57067	-2225
6.58133	-2228
6.59200	-2232
6.60267	-2235
6.61333	-2238
6.62400	-2241
6.63467	-2243
6.64533	-2247
6.65600	-2251
6.66667	-2255
6.67733	-2259
6.68800	-2263
6.69867	-2266
6.70933	-2270
6.72000	-2273
6.73067	-2276
6.74133	-2279
6.75200	-2282
6.76267	-2286
6.77333	-2289
6.78400	-2293
6.79467	-2297
6.80533	-2300
6.81600	-2303
6.82667	-2307
6.83733	-2310
6.84800	-2314
6.85867	-2317
6.86933	-2321
6.88000	-2324
6.89067	-2327
6.90133	-2330
6.91200	-2333
6.92267	-2337
6.93333	-2341
6.94400	-2345
6.95467	-2349
6.96533	-2352
6.97600	-2354
6.98667	-2356
6.99733	-2358
7.00800	-2361
7.01867	-2365
7.02933	-2366
7.04000	-2368
7.05067	-2371
7.06133	-2374
7.07200	-2377
7.08267	-2380
7.09333	-2383
7.10400	-2385
7.11467	-2386
7.12533	-2388
7.13600	-2391
7.14667	-2392
7.15733	-2393
7.16800	-2395
7.17867	-2397
7.18933	-2399
7.20000	-2401
7.21067	-2402
7.22133	-2403
7.23200	-2403
7.24267	-2404
7.25333	-2406
7.26400	-2405
7.27467	-2405
7.28533	-2403
7.29600	-2402
7.30667	-2401
7.31733	-2400
7.32800	-2402
7.33867	-2405
7.34933	-2407
7.36000	-2410
7.37067	-2414
7.38133	-2419
7.39200	-2427
7.40267	-2434
7.41333	-2443
7.42400	-2452
7.43467	-2461
7.44533	-2468
7.45600	-2475
7.46667	-2482
7.47733	-2490
7.48800	-2497
7.49867	-2503
7.50933	-2508
7.52000	-2514
7.53067	-2518
7.54133	-2523
7.55200	-2527
7.56267	-2531
7.57333	-2535
7.58400	-2539
7.59467	-2543
7.60533	-2548
7.61600	-2551
7.62667	-2555
7.63733	-2558
7.64800	-2561
7.65867	-2565
7.66933	-2568
7.68000	-2573
7.69067	-2577
7.70133	-2580
7.71200	-2584
7.72267	-2589
7.73333	-2593
7.74400	-2597
7.75467	-2600
7.76533	-2603
7.77600	-2607
7.78667	-2611
7.79733	-2615
7.80800	-2619
7.81867	-2623
7.82933	-2626
7.84000	-2629
7.85067	-2633
7.86133	-2637
7.87200	-2640
7.88267	-2643
7.89333	-2647
7.90400	-2651
7.91467	-2655
7.92533	-2659
7.93600	-2663
7.94667	-2666
7.95733	-2669
7.96800	-2672
7.97867	-2676
7.98933	-2679
8.00000	-2683
8.01067	-2685
8.02133	-2687
8.03200	-2689
8.04267	-2690
8.05333	-2691
8.06400	-2692
8.07467	-2692
8.08533	-2689
8.09600	-2683
8.10667	-2676
8.11733	-2668
8.12800	-2661
8.13867	-2654
8.14933	-2647
8.16000	-2643
8.17067	-2640
8.18133	-2639
8.19200	-2641
8.20267	-2647
8.21333	-2655
8.22400	-2665
8.23467	-2676
8.24533	-2689
8.25600	-2703
8.26667	-2716
8.27733	-2729
8.28800	-2740
8.29867	-2751
8.30933	-2760
8.32000	-2768
8.33067	-2775
8.34133	-2782
8.35200	-2789
8.36267	-2794
8.37333	-2799
8.38400	-2803
8.39467	-2808
8.40533	-2813
8.41600	-2816
8.42667	-2819
8.43733	-2823
8.44800	-2827
8.45867	-2832
8.46933	-2837
8.48000	-2840
8.49067	-2843
8.50133	-2847
8.51200	-2852
8.52267	-2855
8.53333	-2858
8.54400	-2862
8.55467	-2865
8.56533	-2868
8.57600	-2872
8.58667	-2875
8.59733	-2879
8.60800	-2882
8.61867	-2885
8.62933	-2888
8.64000	-2890
8.65067	-2893
8.66133	-2897
8.67200	-2900
8.68267	-2903
8.69333	-2906
8.70400	-2910
8.71467	-2912
8.72533	-2912
8.73600	-2913
8.74667	-2915
8.75733	-2914
8.76800	-2912
8.77867	-2911
8.78933	-2909
8.80000	-2908
8.81067	-2906
8.82133	-2903
8.83200	-2903
8.84267	-2903
8.85333	-2902
8.86400	-2904
8.87467	-2908
8.88533	-2913
8.89600	-2920
8.90667	-2928
8.91733	-2936
8.92800	-2945
8.93867	-2953
8.94933	-2962
8.96000	-2971
8.97067	-2980
8.98133	-2987
8.99200	-2994
9.00267	-3001
9.01333	-3007
9.02400	-3013
9.03467	-3018
9.04533	-3023
9.05600	-3028
9.06667	-3031
9.07733	-3036
9.08800	-3041
9.09867	-3045
9.10933	-3048
9.12000	-3050
9.13067	-3052
9.14133	-3054
9.15200	-3056
9.16267	-3058
9.17333	-3061
9.18400	-3064
9.19467	-3066
9.20533	-3068
9.21600	-3072
9.22667	-3074
9.23733	-3078
9.24800	-3081
9.25867	-3084
9.26933	-3088
9.28000	-3092
9.29067	-3096
9.30133	-3100
9.31200	-3104
9.32267	-3108
9.33333	-3111
9.34400	-3114
9.35467	-3119
9.36533	-3123
9.37600	-3126
9.38667	-3129
9.39733	-3133
9.40800	-3136
9.41867	-3138
9.42933	-3143
9.44000	-3147
9.45067	-3151
9.46133	-3156
9.47200	-3160
9.48267	-3163
9.49333	-3166
9.50400	-3168
9.51467	-3170
9.52533	-3173
9.53600	-3176
9.54667	-3179
9.55733	-3183
9.56800	-3187
9.57867	-3189
9.58933	-3192
9.60000	-3196
9.61067	-3199
9.62133	-3203
9.63200	-3206
9.64267	-3209
9.65333	-3211
9.66400	-3213
9.67467	-3216
9.68533	-3219
9.69600	-3223
9.70667	-3226
9.71733	-3229
9.72800	-3233
9.73867	-3237
9.74933	-3240
9.76000	-3244
9.77067	-3248
9.78133	-3252
9.79200	-3257
9.80267	-3260
9.81333	-3263
9.82400	-3266
9.83467	-3268
9.84533	-3271
9.85600	-3274
9.86667	-3275
9.87733	-3277
9.88800	-3281
9.89867	-3284
9.90933	-3288
9.92000	-3291
9.93067	-3295
9.94133	-3297
9.95200	-3301
9.96267	-3305
9.97333	-3309
9.98400	-3312
9.99467	-3316
10.00533	-3319
10.01600	-3321
10.02667	-3324
10.03733	-3327
10.04800	-3330
10.05867	-3333
10.06933	-3335
10.08000	-3337
10.09067	-3339
10.10133	-3342
10.11200	-3344
10.12267	-3346
10.13333	-3349
10.14400	-3350
10.15467	-3352
10.16533	-3354
10.17600	-3358
10.18667	-3360
10.19733	-3362
10.20800	-3364
10.21867	-3368
10.22933	-3371
10.24000	-3374
10.25067	-3377
10.26133	-3381
10.27200	-3385
10.28267	-3389
10.29333	-3393
10.30400	-3397
10.31467	-3402
10.32533	-3407
10.33600	-3412
10.34667	-3417
10.35733	-3421
10.36800	-3425
10.37867	-3429
10.38933	-3433
10.40000	-3437
10.41067	-3441
10.42133	-3445
10.43200	-3449
10.44267	-3452
10.45333	-3455
10.46400	-3458
10.47467	-3460
10.48533	-3464
10.49600	-3468
10.50667	-3472
10.51733	-3476
10.52800	-3480
10.53867	-3483
10.54933	-3485
10.56000	-3489
10.57067	-3492
10.58133	-3495
10.59200	-3499
10.60267	-3503
10.61333	-3506
10.62400	-3509
10.63467	-3514
10.64533	-3518
10.65600	-3522
10.66667	-3525
10.67733	-3529
10.68800	-3531
10.69867	-3534
10.70933	-3536
10.72000	-3538
10.73067	-3542
10.74133	-3545
10.75200	-3547
10.76267	-3549
10.77333	-3551
10.78400	-3553
10.79467	-3556
10.80533	-3557
10.81600	-3559
10.82667	-3562
10.83733	-3565
10.84800	-3568
10.85867	-3570
10.86933	-3573
10.88000	-3576
10.89067	-3579
10.90133	-3582
10.91200	-3586
10.92267	-3589
10.93333	-3592
10.94400	-3597
10.95467	-3600
10.96533	-3603
10.97600	-3608
10.98667	-3612
10.99733	-3616
11.00800	-3619
11.01867	-3623
11.02933	-3626
11.04000	-3629
11.05067	-3632
11.06133	-3635
11.07200	-3638
11.08267	-3641
11.09333	-3645
11.10400	-3648
11.11467	-3651
11.12533	-3653
11.13600	-3653
11.14667	-3654
11.15733	-3654
11.16800	-3654
11.17867	-3653
11.18933	-3651
11.20000	-3650
11.21067	-3648
11.22133	-3646
11.23200	-3644
11.24267	-3643
11.25333	-3641
11.26400	-3639
11.27467	-3638
11.28533	-3637
11.29600	-3637
11.30667	-3638
11.31733	-3642
11.32800	-3645
11.33867	-3650
11.34933	-3654
11.36000	-3660
11.37067	-3667
11.38133	-3675
11.39200	-3681
11.40267	-3689
11.41333	-3698
11.42400	-3705
11.43467	-3712
11.44533	-3720
11.45600	-3727
11.46667	-3733
11.47733	-3739
11.48800	-3744
11.49867	-3749
11.50933	-3755
11.52000	-3759
11.53067	-3763
11.54133	-3768
11.55200	-3773
11.56267	-3777
11.57333	-3782
11.58400	-3787
11.59467	-3792
11.60533	-3797
11.61600	-3800
11.62667	-3803
11.63733	-3807
11.64800	-3810
11.65867	-3814
11.66933	-3818
11.68000	-3822
11.69067	-3825
11.70133	-3829
11.71200	-3833
11.72267	-3837
11.73333	-3842
11.74400	-3846
11.75467	-3848
11.76533	-3853
11.77600	-3856
11.78667	-3859
11.79733	-3863
11.80800	-3867
11.81867	-3870
11.82933	-3874
11.84000	-3876
11.85067	-3879
11.86133	-3882
11.87200	-3887
11.88267	-3891
11.89333	-3894
11.90400	-3897
11.91467	-3900
11.92533	-3903
11.93600	-3905
11.94667	-3907
11.95733	-3910
11.96800	-3912
11.97867	-3915
11.98933	-3918
12.00000	-3922
12.01067	-3925
12.02133	-3928
12.03200	-3930
12.04267	-3933
12.05333	-3935
12.06400	-3938
12.07467	-3942
12.08533	-3944
12.09600	-3949
12.10667	-3953
12.11733	-3957
12.12800	-3961
12.13867	-3964
12.14933	-3967
12.16000	-3970
12.17067	-3974
12.18133	-3978
12.19200	-3982
12.20267	-3986
12.21333	-3990
12.22400	-3993
12.23467	-3996
12.24533	-4000
12.25600	-4003
12.26667	-4006
12.27733	-4008
12.28800	-4011
12.29867	-4014
12.30933	-4017
12.32000	-4019
12.33067	-4021
12.34133	-4024
12.35200	-4027
12.36267	-4030
12.37333	-4033
12.38400	-4036
12.39467	-4039
12.40533	-4041
12.41600	-4044
12.42667	-4046
12.43733	-4048
12.44800	-4051
12.45867	-4053
12.46933	-4055
12.48000	-4058
12.49067	-4060
12.50133	-4063
12.51200	-4066
12.52267	-4070
12.53333	-4074
12.54400	-4077
12.55467	-4081
12.56533	-4083
12.57600	-4086
12.58667	-4090
12.59733	-4093
12.60800	-4097
12.61867	-4100
12.62933	-4103
12.64000	-4107
12.65067	-4110
12.66133	-4113
12.67200	-4116
12.68267	-4119
12.69333	-4122
12.70400	-4125
12.71467	-4129
12.72533	-4133
12.73600	-4138
12.74667	-4141
12.75733	-4145
12.76800	-4148
12.77867	-4152
12.78933	-4155
12.80000	-4158
12.81067	-4162
12.82133	-4165
12.83200	-4168
12.84267	-4170
12.85333	-4172
12.86400	-4175
12.87467	-4178
12.88533	-4182
12.89600	-4184
12.90667	-4187
12.91733	-4189
12.92800	-4193
12.93867	-4195
12.94933	-4198
12.96000	-4201
12.97067	-4205
12.98133	-4208
12.99200	-4211
13.00267	-4215
13.01333	-4219
13.02400	-4222
13.03467	-4225
13.04533	-4228
13.05600	-4231
13.06667	-4234
13.07733	-4237
13.08800	-4239
13.09867	-4241
13.10933	-4243
13.12000	-4247
13.13067	-4250
13.14133	-4252
13.15200	-4255
13.16267	-4259
13.17333	-4262
13.18400	-4265
13.19467	-4268
13.20533	-4271
13.21600	-4273
13.22667	-4276
13.23733	-4278
13.24800	-4281
13.25867	-4284
13.26933	-4288
13.28000	-4291
13.29067	-4293
13.30133	-4296
13.31200	-4299
13.32267	-4302
13.33333	-4306
13.34400	-4310
13.35467	-4312
13.36533	-4314
13.37600	-4317
13.38667	-4321
13.39733	-4324
13.40800	-4328
13.41867	-4331
13.42933	-4333
13.44000	-4335
13.45067	-4338
13.46133	-4343
13.47200	-4347
13.48267	-4350
13.49333	-4353
13.50400	-4356
13.51467	-4359
13.52533	-4363
13.53600	-4366
13.54667	-4368
13.55733	-4370
13.56800	-4372
13.57867	-4374
13.58933	-4376
13.60000	-4378
13.61067	-4381
13.62133	-4383
13.63200	-4387
13.64267	-4391
13.65333	-4392
13.66400	-4395
13.67467	-4397
13.68533	-4400
13.69600	-4401
13.70667	-4403
13.71733	-4405
13.72800	-4407
13.73867	-4410
13.74933	-4412
13.76000	-4415
13.77067	-4417
13.78133	-4418
13.79200	-4420
13.80267	-4423
13.81333	-4427
13.82400	-4430
13.83467	-4434
13.84533	-4437
13.85600	-4440
13.86667	-4442
13.87733	-4444
13.88800	-4446
13.89867	-4449
13.90933	-4451
13.92000	-4453
13.93067	-4455
13.94133	-4457
13.95200	-4459
13.96267	-4460
13.97333	-4461
13.98400	-4463
13.99467	-4464
14.00533	-4466
14.01600	-4468
14.02667	-4470
14.03733	-4472
14.04800	-4476
14.05867	-4476
14.06933	-4477
14.08000	-4478
14.09067	-4480
14.10133	-4481
14.11200	-4483
14.12267	-4485
14.13333	-4488
14.14400	-4490
14.15467	-4494
14.16533	-4497
14.17600	-4502
14.18667	-4506
14.19733	-4510
14.20800	-4515
14.21867	-4520
14.22933	-4526
14.24000	-4531
14.25067	-4535
14.26133	-4540
14.27200	-4546
14.28267	-4552
14.29333	-4558
14.30400	-4563
14.31467	-4567
14.32533	-4572
14.33600	-4576
14.34667	-4580
14.35733	-4584
14.36800	-4588
14.37867	-4592
14.38933	-4596
14.40000	-4599
14.41067	-4602
14.42133	-4606
14.43200	-4610
14.44267	-4615
14.45333	-4620
14.46400	-4624
14.47467	-4628
14.48533	-4632
14.49600	-4634
14.50667	-4638
14.51733	-4642
14.52800	-4647
14.53867	-4651
14.54933	-4656
14.56000	-4659
14.57067	-4662
14.58133	-4665
14.59200	-4668
14.60267	-4672
14.61333	-4675
14.62400	-4678
14.63467	-4680
14.64533	-4682
14.65600	-4685
14.66667	-4687
14.67733	-4689
14.68800	-4692
14.69867	-4694
14.70933	-4696
14.72000	-4699
14.73067	-4701
14.74133	-4704
14.75200	-4707
14.76267	-4711
14.77333	-4713
14.78400	-4715
14.79467	-4717
14.80533	-4720
14.81600	-4723
14.82667	-4727
14.83733	-4731
14.84800	-4735
14.85867	-4739
14.86933	-4742
14.88000	-4745
14.89067	-4748
14.90133	-4753
14.91200	-4756
14.92267	-4759
14.93333	-4762
14.94400	-4766
14.95467	-4769
14.96533	-4772
14.97600	-4773
14.98667	-4775
14.99733	-4778
15.00800	-4781
15.01867	-4784
15.02933	-4787
15.04000	-4789
15.05067	-4791
15.06133	-4792
15.07200	-4794
15.08267	-4797
15.09333	-4799
15.10400	-4801
15.11467	-4804
15.12533	-4807
15.13600	-4810
15.14667	-4812
15.15733	-4815
15.16800	-4817
15.17867	-4820
15.18933	-4822
15.20000	-4824
15.21067	-4827
15.22133	-4830
15.23200	-4832
15.24267	-4834
15.25333	-4837
15.26400	-4840
15.27467	-4842
15.28533	-4846
15.29600	-4849
15.30667	-4853
15.31733	-4856
15.32800	-4859
15.33867	-4862
15.34933	-4865
15.36000	-4868
15.37067	-4873
15.38133	-4876
15.39200	-4879
15.40267	-4881
15.41333	-4883
15.42400	-4886
15.43467	-4890
15.44533	-4894
15.45600	-4898
15.46667	-4901
15.47733	-4904
15.48800	-4908
15.49867	-4912
15.50933	-4916
15.52000	-4920
15.53067	-4924
15.54133	-4927
15.55200	-4930
15.56267	-4933
15.57333	-4936
15.58400	-4939
15.59467	-4941
15.60533	-4943
15.61600	-4946
15.62667	-4948
15.63733	-4950
15.64800	-4954
15.65867	-4957
15.66933	-4960
15.68000	-4964
15.69067	-4966
15.70133	-4968
15.71200	-4971
15.72267	-4975
15.73333	-4977
15.74400	-4980
15.75467	-4983
15.76533	-4985
15.77600	-4988
15.78667	-4990
15.79733	-4991
15.80800	-4994
15.81867	-4996
15.82933	-4998
15.84000	-5000
15.85067	-5002
15.86133	-5004
15.87200	-5005
15.88267	-5008
15.89333	-5010
15.90400	-5011
15.91467	-5013
15.92533	-5014
15.93600	-5015
15.94667	-5015
15.95733	-5015
15.96800	-5014
15.97867	-5013
15.98933	-5013
16.00000	-5010
16.01067	-5006
16.02133	-5001
16.03200	-4996
16.04267	-4992
16.05333	-4986
16.06400	-4979
16.07467	-4971
16.08533	-4963
16.09600	-4955
16.10667	-4946
16.11733	-4938
16.12800	-4930
16.13867	-4921
16.14933	-4914
16.16000	-4908
16.17067	-4902
16.18133	-4897
16.19200	-4893
16.20267	-4890
16.21333	-4888
16.22400	-4888
16.23467	-4889
16.24533	-4892
16.25600	-4897
16.26667	-4904
16.27733	-4911
16.28800	-4920
16.29867	-4930
16.30933	-4940
16.32000	-4951
16.33067	-4963
16.34133	-4975
16.35200	-4986
16.36267	-4998
16.37333	-5008
16.38400	-5018
16.39467	-5026
16.40533	-5030
16.41600	-5031
16.42667	-5030
16.43733	-5024
16.44800	-5012
16.45867	-4992
16.46933	-4963
16.48000	-4923
16.49067	-4869
16.50133	-4800
16.51200	-4711
16.52267	-4601
16.53333	-4465
16.54400	-4298
16.55467	-4096
16.56533	-3857
16.57600	-3576
16.58667	-3246
16.59733	-2866
16.60800	-2431
16.61867	-1941
16.62933	-1392
16.64000	-784
16.65067	-121
16.66133	598
16.67200	1365
16.68267	2176
16.69333	3022
16.70400	3893
16.71467	4775
16.72533	5656
16.73600	6521
16.74667	7354
16.75733	8138
16.76800	8860
16.77867	9504
16.78933	10057
16.80000	10507
16.81067	10845
16.82133	11062
16.83200	11155
16.84267	11123
16.85333	10969
16.86400	10695
16.87467	10310
16.88533	9824
16.89600	9248
16.90667	8593
16.91733	7874
16.92800	7106
16.93867	6304
16.94933	5482
16.96000	4651
16.97067	3825
16.98133	3016
16.99200	2233
17.00267	1481
17.01333	767
17.02400	99
17.03467	-523
17.04533	-1098
17.05600	-1623
17.06667	-2098
17.07733	-2526
17.08800	-2908
17.09867	-3247
17.10933	-3547
17.12000	-3810
17.13067	-4039
17.14133	-4239
17.15200	-4412
17.16267	-4560
17.17333	-4687
17.18400	-4794
17.19467	-4887
17.20533	-4967
17.21600	-5034
17.22667	-5091
17.23733	-5139
17.24800	-5180
17.25867	-5215
17.26933	-5245
17.28000	-5270
17.29067	-5291
17.30133	-5310
17.31200	-5325
17.32267	-5338
17.33333	-5350
17.34400	-5361
17.35467	-5371
17.36533	-5380
17.37600	-5387
17.38667	-5394
17.39733	-5400
17.40800	-5406
17.41867	-5410
17.42933	-5415
17.44000	-5419
17.45067	-5423
17.46133	-5426
17.47200	-5430
17.48267	-5434
17.49333	-5437
17.50400	-5440
17.51467	-5444
17.52533	-5449
17.53600	-5453
17.54667	-5455
17.55733	-5458
17.56800	-5460
17.57867	-5462
17.58933	-5464
17.60000	-5467
17.61067	-5470
17.62133	-5472
17.63200	-5473
17.64267	-5475
17.65333	-5479
17.66400	-5482
17.67467	-5484
17.68533	-5486
17.69600	-5488
17.70667	-5490
17.71733	-5494
17.72800	-5498
17.73867	-5501
17.74933	-5506
17.76000	-5510
17.77067	-5515
17.78133	-5518
17.79200	-5522
17.80267	-5526
17.81333	-5531
17.82400	-5536
17.83467	-5541
17.84533	-5545
17.85600	-5548
17.86667	-5552
17.87733	-5553
17.88800	-5555
17.89867	-5557
17.90933	-5559
17.92000	-5560
17.93067	-5561
17.94133	-5561
17.95200	-5559
17.96267	-5555
17.97333	-5550
17.98400	-5545
17.99467	-5537
18.00533	-5526
18.01600	-5512
18.02667	-5493
18.03733	-5470
18.04800	-5438
18.05867	-5400
18.06933	-5352
18.08000	-5294
18.09067	-5223
18.10133	-5135
18.11200	-5029
18.12267	-4902
18.13333	-4752
18.14400	-4575
18.15467	-4367
18.16533	-4125
18.17600	-3847
18.18667	-3529
18.19733	-3166
18.20800	-2759
18.21867	-2305
18.22933	-1802
18.24000	-1251
18.25067	-652
18.26133	-4
18.27200	688
18.28267	1420
18.29333	2187
18.30400	2984
18.31467	3800
18.32533	4628
18.33600	5459
18.34667	6281
18.35733	7083
18.36800	7853
18.37867	8580
18.38933	9249
18.40000	9852
18.41067	10379
18.42133	10823
18.43200	11175
18.44267	11429
18.45333	11584
18.46400	11635
18.47467	11584
18.48533	11433
18.49600	11186
18.50667	10847
18.51733	10425
18.52800	9927
18.53867	9363
18.54933	8740
18.56000	8069
18.57067	7360
18.58133	6624
18.59200	5871
18.60267	5108
18.61333	4346
18.62400	3593
18.63467	2856
18.64533	2139
18.65600	1450
18.66667	793
18.67733	169
18.68800	-419
18.69867	-968
18.70933	-1477
18.72000	-1947
18.73067	-2378
18.74133	-2772
18.75200	-3129
18.76267	-3451
18.77333	-3741
18.78400	-3999
18.79467	-4229
18.80533	-4434
18.81600	-4614
18.82667	-4772
18.83733	-4910
18.84800	-5032
18.85867	-5138
18.86933	-5231
18.88000	-5311
18.89067	-5381
18.90133	-5441
18.91200	-5493
18.92267	-5537
18.93333	-5577
18.94400	-5611
18.95467	-5641
18.96533	-5667
18.97600	-5690
18.98667	-5710
18.99733	-5727
19.00800	-5742
19.01867	-5757
19.02933	-5770
19.04000	-5780
19.05067	-5790
19.06133	-5799
19.07200	-5807
19.08267	-5814
19.09333	-5821
19.10400	-5827
19.11467	-5834
19.12533	-5839
19.13600	-5844
19.14667	-5849
19.15733	-5854
19.16800	-5859
19.17867	-5863
19.18933	-5867
19.20000	-5871
19.21067	-5874
19.22133	-5879
19.23200	-5883
19.24267	-5888
19.25333	-5892
19.26400	-5895
19.27467	-5899
19.28533	-5902
19.29600	-5906
19.30667	-5910
19.31733	-5914
19.32800	-5918
19.33867	-5922
19.34933	-5927
19.36000	-5932
19.37067	-5934
19.38133	-5937
19.39200	-5939
19.40267	-5941
19.41333	-5944
19.42400	-5947
19.43467	-5949
19.44533	-5951
19.45600	-5953
19.46667	-5955
19.47733	-5959
19.48800	-5960
19.49867	-5962
19.50933	-5965
19.52000	-5968
19.53067	-5971
19.54133	-5974
19.55200	-5977
19.56267	-5981
19.57333	-5984
19.58400	-5986
19.59467	-5989
19.60533	-5992
19.61600	-5994
19.62667	-5998
19.63733	-6001
19.64800	-6005
19.65867	-6009
19.66933	-6011
19.68000	-6013
19.69067	-6016
19.70133	-6018
19.71200	-6020
19.72267	-6023
19.73333	-6026
19.74400	-6030
19.75467	-6033
19.76533	-6035
19.77600	-6038
19.78667	-6042
19.79733	-6045
19.80800	-6047
19.81867	-6049
19.82933	-6052
19.84000	-6053
19.85067	-6054
19.86133	-6056
19.87200	-6058
19.88267	-6060
19.89333	-6063
19.90400	-6065
19.91467	-6068
19.92533	-6070
19.93600	-6073
19.94667	-6076
19.95733	-6079
19.96800	-6082
19.97867	-6084
19.98933	-6087
20.00000	-6090
20.01067	-6091
20.02133	-6094
20.03200	-6097
20.04267	-6100
20.05333	-6103
20.06400	-6106
20.07467	-6108
20.08533	-6111
20.09600	-6114
20.10667	-6116
20.11733	-6119
20.12800	-6120
20.13867	-6121
20.14933	-6122
20.16000	-6123
20.17067	-6124
20.18133	-6127
20.19200	-6129
20.20267	-6132
20.21333	-6134
20.22400	-6136
20.23467	-6138
20.24533	-6141
20.25600	-6142
20.26667	-6144
20.27733	-6147
20.28800	-6151
20.29867	-6153
20.30933	-6156
20.32000	-6159
20.33067	-6162
20.34133	-6165
20.35200	-6167
20.36267	-6170
20.37333	-6174
20.38400	-6177
20.39467	-6180
20.40533	-6183
20.41600	-6186
20.42667	-6189
20.43733	-6192
20.44800	-6196
20.45867	-6200
20.46933	-6202
20.48000	-6204
20.49067	-6207
20.50133	-6209
20.51200	-6212
20.52267	-6216
20.53333	-6220
20.54400	-6224
20.55467	-6228
20.56533	-6232
20.57600	-6234
20.58667	-6235
20.59733	-6238
20.60800	-6241
20.61867	-6244
20.62933	-6247
20.64000	-6250
20.65067	-6253
20.66133	-6256
20.67200	-6258
20.68267	-6261
20.69333	-6264
20.70400	-6267
20.71467	-6269
20.72533	-6272
20.73600	-6275
20.74667	-6278
20.75733	-6279
20.76800	-6282
20.77867	-6285
20.78933	-6288
20.80000	-6290
20.81067	-6293
20.82133	-6295
20.83200	-6296
20.84267	-6298
20.85333	-6300
20.86400	-6302
20.87467	-6304
20.88533	-6307
20.89600	-6310
20.90667	-6312
20.91733	-6313
20.92800	-6317
20.93867	-6321
20.94933	-6323
20.96000	-6325
20.97067	-6327
20.98133	-6329
20.99200	-6332
21.00267	-6335
21.01333	-6337
21.02400	-6339
21.03467	-6342
21.04533	-6345
21.05600	-6348
21.06667	-6351
21.07733	-6354
21.08800	-6357
21.09867	-6359
21.10933	-6361
21.12000	-6364
21.13067	-6367
21.14133	-6370
21.15200	-6373
21.16267	-6375
21.17333	-6376
21.18400	-6378
21.19467	-6381
21.20533	-6384
21.21600	-6388
21.22667	-6390
21.23733	-6392
21.24800	-6395
21.25867	-6398
21.26933	-6402
21.28000	-6405
21.29067	-6407
21.30133	-6409
21.31200	-6413
21.32267	-6416
21.33333	-6419
21.34400	-6422
21.35467	-6424
21.36533	-6426
21.37600	-6429
21.38667	-6432
21.39733	-6434
21.40800	-6436
21.41867	-6438
21.42933	-6441
21.44000	-6443
21.45067	-6445
21.46133	-6447
21.47200	-6449
21.48267	-6452
21.49333	-6453
21.50400	-6455
21.51467	-6457
21.52533	-6458
21.53600	-6460
21.54667	-6461
21.55733	-6463
21.56800	-6465
21.57867	-6467
21.58933	-6470
21.60000	-6473
21.61067	-6477
21.62133	-6480
21.63200	-6484
21.64267	-6486
21.65333	-6489
21.66400	-6493
21.67467	-6496
21.68533	-6500
21.69600	-6503
21.70667	-6505
21.71733	-6508
21.72800	-6512
21.73867	-6515
21.74933	-6518
21.76000	-6520
21.77067	-6523
21.78133	-6526
21.79200	-6529
21.80267	-6532
21.81333	-6535
21.82400	-6537
21.83467	-6540
21.84533	-6543
21.85600	-6546
21.86667	-6550
21.87733	-6552
21.88800	-6554
21.89867	-6555
21.90933	-6558
21.92000	-6560
21.93067	-6562
21.94133	-6564
21.95200	-6566
21.96267	-6568
21.97333	-6570
21.98400	-6572
21.99467	-6575
22.00533	-6578
22.01600	-6582
22.02667	-6585
22.03733	-6587
22.04800	-6589
22.05867	-6592
22.06933	-6595
22.08000	-6597
22.09067	-6600
22.10133	-6602
22.11200	-6606
22.12267	-6609
22.13333	-6611
22.14400	-6612
22.15467	-6614
22.16533	-6616
22.17600	-6619
22.18667	-6623
22.19733	-6626
22.20800	-6628
22.21867	-6630
22.22933	-6631
22.24000	-6634
22.25067	-6637
22.26133	-6639
22.27200	-6640
22.28267	-6643
22.29333	-6645
22.30400	-6647
22.31467	-6649
22.32533	-6652
22.33600	-6654
22.34667	-6657
22.35733	-6660
22.36800	-6664
22.37867	-6667
22.38933	-6670
22.40000	-6674
22.41067	-6677
22.42133	-6681
22.43200	-6684
22.44267	-6687
22.45333	-6691
22.46400	-6694
22.47467	-6697
22.48533	-6701
22.49600	-6705
22.50667	-6707
22.51733	-6710
22.52800	-6712
22.53867	-6714
22.54933	-6717
22.56000	-6721
22.57067	-6724
22.58133	-6726
22.59200	-6729
22.60267	-6730
22.61333	-6732
22.62400	-6736
22.63467	-6739
22.64533	-6742
22.65600	-6745
22.66667	-6748
22.67733	-6751
22.68800	-6754
22.69867	-6756
22.70933	-6759
22.72000	-6762
22.73067	-6763
22.74133	-6766
22.75200	-6769
22.76267	-6772
22.77333	-6775
22.78400	-6778
22.79467	-6780
22.80533	-6782
22.81600	-6785
22.82667	-6788
22.83733	-6790
22.84800	-6792
22.85867	-6794
22.86933	-6798
22.88000	-6802
22.89067	-6804
22.90133	-6806
22.91200	-6808
22.92267	-6812
22.93333	-6815
22.94400	-6818
22.95467	-6821
22.96533	-6824
22.97600	-6826
22.98667	-6829
22.99733	-6832
23.00800	-6834
23.01867	-6835
23.02933	-6837
23.04000	-6840
23.05067	-6844
23.06133	-6847
23.07200	-6850
23.08267	-6853
23.09333	-6855
23.10400	-6856
23.11467	-6859
23.12533	-6862
23.13600	-6864
23.14667	-6867
23.15733	-6869
23.16800	-6872
23.17867	-6875
23.18933	-6878
23.20000	-6881
23.21067	-6883
23.22133	-6886
23.23200	-6888
23.24267	-6891
23.25333	-6893
23.26400	-6896
23.27467	-6899
23.28533	-6902
23.29600	-6905
23.30667	-6908
23.31733	-6911
23.32800	-6914
23.33867	-6917
23.34933	-6920
23.36000	-6923
23.37067	-6926
23.38133	-6928
23.39200	-6930
23.40267	-6933
23.41333	-6936
23.42400	-6938
23.43467	-6940
23.44533	-6942
23.45600	-6944
23.46667	-6946
23.47733	-6948
23.48800	-6950
23.49867	-6952
23.50933	-6954
23.52000	-6955
23.53067	-6956
23.54133	-6957
23.55200	-6959
23.56267	-6962
23.57333	-6964
23.58400	-6965
23.59467	-6966
23.60533	-6968
23.61600	-6969
23.62667	-6970
23.63733	-6971
23.64800	-6974
23.65867	-6977
23.66933	-6979
23.68000	-6981
23.69067	-6983
23.70133	-6986
23.71200	-6989
23.72267	-6992
23.73333	-6996
23.74400	-6999
23.75467	-7001
23.76533	-7003
23.77600	-7005
23.78667	-7009
23.79733	-7013
23.80800	-7016
23.81867	-7020
23.82933	-7024
23.84000	-7026
23.85067	-7028
23.86133	-7031
23.87200	-7034
23.88267	-7037
23.89333	-7040
23.90400	-7043
23.91467	-7046
23.92533	-7048
23.93600	-7050
23.94667	-7053
23.95733	-7055
23.96800	-7058
23.97867	-7061
23.98933	-7064
24.00000	-7067
24.01067	-7069
24.02133	-7071
24.03200	-7073
24.04267	-7076
24.05333	-7078
24.06400	-7082
24.07467	-7085
24.08533	-7088
24.09600	-7091
24.10667	-7093
24.11733	-7097
24.12800	-7099
24.13867	-7102
24.14933	-7105
24.16000	-7107
24.17067	-7111
24.18133	-7113
24.19200	-7115
24.20267	-7118
24.21333	-7121
24.22400	-7123
24.23467	-7124
24.24533	-7127
24.25600	-7130
24.26667	-7134
24.27733	-7137
24.28800	-7139
24.29867	-7141
24.30933	-7145
24.32000	-7149
24.33067	-7152
24.34133	-7155
24.35200	-7158
24.36267	-7161
24.37333	-7165
24.38400	-7167
24.39467	-7169
24.40533	-7172
24.41600	-7174
24.42667	-7177
24.43733	-7179
24.44800	-7180
24.45867	-7182
24.46933	-7184
24.48000	-7187
24.49067	-7188
24.50133	-7190
24.51200	-7193
24.52267	-7195
24.53333	-7197
24.54400	-7199
24.55467	-7202
24.56533	-7206
24.57600	-7209
24.58667	-7212
24.59733	-7215
24.60800	-7219
24.61867	-7223
24.62933	-7225
24.64000	-7228
24.65067	-7231
24.66133	-7233
24.67200	-7236
24.68267	-7239
24.69333	-7241
24.70400	-7243
24.71467	-7245
24.72533	-7248
24.73600	-7252
24.74667	-7256
24.75733	-7259
24.76800	-7261
24.77867	-7265
24.78933	-7269
24.80000	-7272
24.81067	-7276
24.82133	-7280
24.83200	-7283
24.84267	-7286
24.85333	-7289
24.86400	-7292
24.87467	-7295
24.88533	-7297
24.89600	-7300
24.90667	-7303
24.91733	-7307
24.92800	-7311
24.93867	-7313
24.94933	-7316
24.96000	-7320
24.97067	-7323
24.98133	-7325
24.99200	-7330
25.00267	-7334
25.01333	-7336
25.02400	-7338
25.03467	-7340
25.04533	-7342
25.05600	-7345
25.06667	-7347
25.07733	-7348
25.08800	-7350
25.09867	-7354
25.10933	-7358
25.12000	-7360
25.13067	-7364
25.14133	-7367
25.15200	-7369
25.16267	-7372
25.17333	-7376
25.18400	-7380
25.19467	-7383
25.20533	-7385
25.21600	-7386
25.22667	-7387
25.23733	-7388
25.24800	-7389
25.25867	-7390
25.26933	-7391
25.28000	-7392
25.29067	-7394
25.30133	-7395
25.31200	-7395
25.32267	-7396
25.33333	-7397
25.34400	-7398
25.35467	-7400
25.36533	-7402
25.37600	-7404
25.38667	-7406
25.39733	-7409
25.40800	-7412
25.41867	-7417
25.42933	-7419
25.44000	-7422
25.45067	-7425
25.46133	-7428
25.47200	-7432
25.48267	-7436
25.49333	-7438
25.50400	-7442
25.51467	-7445
25.52533	-7447
25.53600	-7450
25.54667	-7453
25.55733	-7454
25.56800	-7457
25.57867	-7459
25.58933	-7460
25.60000	-7463
25.61067	-7465
25.62133	-7467
25.63200	-7469
25.64267	-7472
25.65333	-7475
25.66400	-7477
25.67467	-7479
25.68533	-7482
25.69600	-7485
25.70667	-7488
25.71733	-7491
25.72800	-7496
25.73867	-7499
25.74933	-7501
25.76000	-7504
25.77067	-7507
25.78133	-7511
25.79200	-7514
25.80267	-7517
25.81333	-7520
25.82400	-7523
25.83467	-7526
25.84533	-7529
25.85600	-7532
25.86667	-7534
25.87733	-7537
25.88800	-7538
25.89867	-7540
25.90933	-7542
25.92000	-7544
25.93067	-7546
25.94133	-7549
25.95200	-7552
25.96267	-7554
25.97333	-7556
25.98400	-7558
25.99467	-7561
26.00533	-7565
26.01600	-7568
26.02667	-7571
26.03733	-7574
26.04800	-7577
26.05867	-7579
26.06933	-7582
26.08000	-7584
26.09067	-7586
26.10133	-7589
26.11200	-7593
26.12267	-7596
26.13333	-7599
26.14400	-7602
26.15467	-7606
26.16533	-7608
26.17600	-7610
26.18667	-7612
26.19733	-7615
26.20800	-7619
26.21867	-7621
26.22933	-7623
26.24000	-7625
26.25067	-7627
26.26133	-7630
26.27200	-7634
26.28267	-7637
26.29333	-7639
26.30400	-7641
26.31467	-7643
26.32533	-7645
26.33600	-7647
26.34667	-7649
26.35733	-7651
26.36800	-7654
26.37867	-7657
26.38933	-7660
26.40000	-7664
26.41067	-7667
26.42133	-7669
26.43200	-7670
26.44267	-7674
26.45333	-7678
26.46400	-7682
26.47467	-7685
26.48533	-7688
26.49600	-7691
26.50667	-7694
26.51733	-7697
26.52800	-7700
26.53867	-7703
26.54933	-7706
26.56000	-7708
26.57067	-7710
26.58133	-7713
26.59200	-7715
26.60267	-7716
26.61333	-7719
26.62400	-7722
26.63467	-7725
26.64533	-7727
26.65600	-7731
26.66667	-7734
26.67733	-7737
26.68800	-7740
26.69867	-7742
26.70933	-7745
26.72000	-7748
26.73067	-7751
26.74133	-7753
26.75200	-7755
26.76267	-7759
26.77333	-7763
26.78400	-7765
26.79467	-7767
26.80533	-7769
26.81600	-7771
26.82667	-7773
26.83733	-7775
26.84800	-7777
26.85867	-7780
26.86933	-7783
26.88000	-7786
26.89067	-7790
26.90133	-7793
26.91200	-7795
26.92267	-7798
26.93333	-7800
26.94400	-7803
26.95467	-7805
26.96533	-7806
26.97600	-7808
26.98667	-7809
26.99733	-7811
27.00800	-7813
27.01867	-7815
27.02933	-7817
27.04000	-7819
27.05067	-7822
27.06133	-7825
27.07200	-7828
27.08267	-7832
27.09333	-7834
27.10400	-7836
27.11467	-7839
27.12533	-7842
27.13600	-7846
27.14667	-7849
27.15733	-7852
27.16800	-7855
27.17867	-7858
27.18933	-7861
27.20000	-7863
27.21067	-7865
27.22133	-7866
27.23200	-7869
27.24267	-7871
27.25333	-7873
27.26400	-7876
27.27467	-7878
27.28533	-7880
27.29600	-7882
27.30667	-7885
27.31733	-7888
27.32800	-7891
27.33867	-7894
27.34933	-7897
27.36000	-7900
27.37067	-7903
27.38133	-7906
27.39200	-7909
27.40267	-7912
27.41333	-7914
27.42400	-7915
27.43467	-7917
27.44533	-7919
27.45600	-7920
27.46667	-7922
27.47733	-7923
27.48800	-7924
27.49867	-7926
27.50933	-7929
27.52000	-7931
27.53067	-7933
27.54133	-7935
27.55200	-7937
27.56267	-7939
27.57333	-7941
27.58400	-7943
27.59467	-7946
27.60533	-7949
27.61600	-7951
27.62667	-7954
27.63733	-7958
27.64800	-7962
27.65867	-7965
27.66933	-7969
27.68000	-7972
27.69067	-7974
27.70133	-7978
27.71200	-7983
27.72267	-7987
27.73333	-7991
27.74400	-7995
27.75467	-7999
27.76533	-8003
27.77600	-8006
27.78667	-8009
27.79733	-8012
27.80800	-8016
27.81867	-8018
27.82933	-8021
27.84000	-8024
27.85067	-8026
27.86133	-8028
27.87200	-8031
27.88267	-8033
27.89333	-8035
27.90400	-8036
27.91467	-8036
27.92533	-8037
27.93600	-8038
27.94667	-8039
27.95733	-8042
27.96800	-8044
27.97867	-8047
27.98933	-8048
28.00000	-8050
28.01067	-8053
28.02133	-8056
28.03200	-8059
28.04267	-8062
28.05333	-8064
28.06400	-8066
28.07467	-8069
28.08533	-8072
28.09600	-8075
28.10667	-8077
28.11733	-8081
28.12800	-8085
28.13867	-8089
28.14933	-8093
28.16000	-8096
28.17067	-8099
28.18133	-8102
28.19200	-8104
28.20267	-8106
28.21333	-8108
28.22400	-8111
28.23467	-8115
28.24533	-8118
28.25600	-8122
28.26667	-8125
28.27733	-8127
28.28800	-8129
28.29867	-8131
28.30933	-8135
28.32000	-8138
28.33067	-8140
28.34133	-8142
28.35200	-8145
28.36267	-8148
28.37333	-8150
28.38400	-8153
28.39467	-8156
28.40533	-8158
28.41600	-8160
28.42667	-8163
28.43733	-8166
28.44800	-8167
28.45867	-8169
28.46933	-8171
28.48000	-8173
28.49067	-8175
28.50133	-8176
28.51200	-8178
28.52267	-8179
28.53333	-8181
28.54400	-8184
28.55467	-8187
28.56533	-8192
28.57600	-8195
28.58667	-8197
28.59733	-8199
28.60800	-8203
28.61867	-8206
28.62933	-8209
28.64000	-8212
28.65067	-8216
28.66133	-8220
28.67200	-8222
28.68267	-8225
28.69333	-8228
28.70400	-8232
28.71467	-8236
28.72533	-8240
28.73600	-8243
28.74667	-8244
28.75733	-8247
28.76800	-8249
28.77867	-8251
28.78933	-8253
28.80000	-8254
28.81067	-8253
28.82133	-8253
28.83200	-8253
28.84267	-8255
28.85333	-8256
28.86400	-8257
28.87467	-8258
28.88533	-8258
28.89600	-8259
28.90667	-8260
28.91733	-8261
28.92800	-8260
28.93867	-8260
28.94933	-8260
28.96000	-8259
28.97067	-8260
28.98133	-8260
28.99200	-8259
29.00267	-8258
29.01333	-8256
29.02400	-8254
29.03467	-8251
29.04533	-8247
29.05600	-8244
29.06667	-8240
29.07733	-8236
29.08800	-8231
29.09867	-8226
29.10933	-8219
29.12000	-8213
29.13067	-8208
29.14133	-8202
29.15200	-8195
29.16267	-8187
29.17333	-8178
29.18400	-8170
29.19467	-8162
29.20533	-8154
29.21600	-8146
29.22667	-8138
29.23733	-8129
29.24800	-8121
29.25867	-8113
29.26933	-8105
29.28000	-8097
29.29067	-8090
29.30133	-8084
29.31200	-8078
29.32267	-8072
29.33333	-8066
29.34400	-8060
29.35467	-8054
29.36533	-8050
29.37600	-8046
29.38667	-8043
29.39733	-8042
29.40800	-8040
29.41867	-8040
29.42933	-8041
29.44000	-8043
29.45067	-8046
29.46133	-8050
29.47200	-8055
29.48267	-8060
29.49333	-8065
29.50400	-8073
29.51467	-8081
29.52533	-8088
29.53600	-8098
29.54667	-8108
29.55733	-8118
29.56800	-8128
29.57867	-8139
29.58933	-8151
29.60000	-8164
29.61067	-8176
29.62133	-8188
29.63200	-8201
29.64267	-8214
29.65333	-8227
29.66400	-8241
29.67467	-8253
29.68533	-8265
29.69600	-8278
29.70667	-8290
29.71733	-8302
29.72800	-8313
29.73867	-8325
29.74933	-8338
29.76000	-8350
29.77067	-8362
29.78133	-8372
29.79200	-8381
29.80267	-8393
29.81333	-8403
29.82400	-8412
29.83467	-8420
29.84533	-8429
29.85600	-8438
29.86667	-8446
29.87733	-8454
29.88800	-8462
29.89867	-8468
29.90933	-8473
29.92000	-8479
29.93067	-8485
29.94133	-8489
29.95200	-8494
29.96267	-8498
29.97333	-8504
29.98400	-8509
29.99467	-8513
30.00533	-8518


