[Header]
Application Name	LabSolutions
Version	5.117
Data File Name	C:\LabSolutions\Data\SuperEx_13-09-2023\Data\TocopherolStnd_5ppm_13-09-2023.lcd
Output Date	12/7/2023
Output Time	2:55:32 PM

[File Information]
Type	Data File
Generated	9/14/2023 12:51:43 AM
Generated by	user
Modified	9/14/2023 11:26:16 AM
Modified by	user

[Sample Information]
Operator Name	user
Acquired	9/14/2023 12:52:02 AM
Sample Type	0:Unknown
Level	0
Sample Name	TocopherolStnd_5ppm_13-09-2023
Sample ID	
ISTD Amount1	1
ISTD Amount2	1
ISTD Amount3	1
ISTD Amount4	1
ISTD Amount5	1
ISTD Amount6	1
ISTD Amount7	1
ISTD Amount8	1
ISTD Amount9	1
ISTD Amount10	1
ISTD Amount11	1
ISTD Amount12	1
ISTD Amount13	1
ISTD Amount14	1
ISTD Amount15	1
ISTD Amount16	1
ISTD Amount17	1
ISTD Amount18	1
ISTD Amount19	1
ISTD Amount20	1
ISTD Amount21	1
ISTD Amount22	1
ISTD Amount23	1
ISTD Amount24	1
ISTD Amount25	1
ISTD Amount26	1
ISTD Amount27	1
ISTD Amount28	1
ISTD Amount29	1
ISTD Amount30	1
ISTD Amount31	1
ISTD Amount32	1
Sample Amount	1
Dilution Factor	1
Vial#	5
Injection Volume	20

[Original Files]
Data File	C:\LabSolutions\Data\SuperEx_13-09-2023\Data\TocopherolStnd_5ppm_13-09-2023.lcd
Method File	C:\LabSolutions\Data\Main Methods\TocopherolsAlphaGammaDelta_25-08-2023.lcm
Batch File	C:\LabSolutions\Data\MetinSakiz_22-08-2023\Batches\MetinSakiz_Tocopherol-and-Quercetin_25-08-2023.lcb
Report Format File	C:\LabSolutions\System\DEFAULT.lsr

[File Description]


[Configuration]
Instrument Name	HPLC
Instrument #	1
Line #	1
# of Detectors	1
Detector ID	PDA
Detector Name	PDA
# of Channels	1

[Peak Table(PDA-Ch1)]
# of Peaks	11
Peak#	R.Time	I.Time	F.Time	Area	Height	A/H	Conc.	Mark	ID#	Name	k'	Plate #	Plate Ht.	Tailing	Resolution	Sep.Factor	Area Ratio	Height Ratio	Conc. %	Norm Conc.
1	1.472	0.981	1.515	867	73	11.803	1.232	   			0.000	262	572.692	0.000	0.000	0.000	0	0	0.000	0.000
2	1.728	1.515	2.080	8374	670	12.502	11.904	 V 			0.174	599	250.417	0.000	0.792	0.000	0	0	0.000	0.000
3	2.784	2.080	2.869	7256	709	10.231	10.315	 V 			0.891	6258	23.968	0.000	4.991	5.125	0	0	0.000	0.000
4	3.051	2.869	3.221	4707	424	11.098	6.692	   			1.072	1997	75.105	0.000	1.289	1.203	0	0	0.000	0.000
5	3.285	3.221	3.467	2680	218	12.301	3.810	 V 			1.232	198	755.851	0.000	0.389	1.149	0	0	0.000	0.000
6	3.680	3.467	3.680	2695	313	8.601	3.830	 V 			1.500	0	0.000	0.000	0.000	1.218	0	0	0.000	0.000
7	3.808	3.680	4.555	12119	412	29.442	17.228	 V 			1.587	302	496.893	0.000	0.000	1.058	0	0	0.000	0.000
8	4.683	4.555	5.803	4084	128	31.888	5.805	 V 			2.181	397	377.607	0.000	0.963	1.374	0	0	0.000	0.000
9	16.395	16.000	16.832	5674	264	21.524	8.066	   			10.138	13010	11.530	1.113	15.464	4.648	0	0	0.000	0.000
10	19.296	18.763	19.936	8933	355	25.135	12.698	   			12.109	13060	11.485	1.067	4.641	1.194	0	0	0.000	0.000
11	22.528	21.760	23.403	12958	430	30.139	18.420	   			14.304	12769	11.748	1.096	4.389	1.181	0	0	0.000	0.000

[Compound Results(PDA)]
# of IDs	0

[PDA Multi Chromatogram(Ch1)]
# of Points	      2814
Interval(msec)	640
Start Time(min)	0
End Time(min)	30.0053
Intensity Units	mAU
Intensity Multiplier	1
Type	MultiChrom
Wavelength(nm)	254
Bandwidth(nm)	4
R.Time (min)	Intensity
0.00000	0
0.01067	0
0.02133	0
0.03200	0
0.04267	0
0.05333	1
0.06400	0
0.07467	0
0.08533	1
0.09600	0
0.10667	-0
0.11733	-0
0.12800	-1
0.13867	-2
0.14933	-2
0.16000	-2
0.17067	-1
0.18133	-2
0.19200	-1
0.20267	-1
0.21333	-1
0.22400	-1
0.23467	1
0.24533	3
0.25600	3
0.26667	3
0.27733	2
0.28800	3
0.29867	3
0.30933	3
0.32000	3
0.33067	3
0.34133	4
0.35200	5
0.36267	5
0.37333	6
0.38400	6
0.39467	5
0.40533	5
0.41600	6
0.42667	7
0.43733	8
0.44800	9
0.45867	9
0.46933	9
0.48000	9
0.49067	8
0.50133	7
0.51200	6
0.52267	5
0.53333	6
0.54400	7
0.55467	7
0.56533	7
0.57600	8
0.58667	8
0.59733	8
0.60800	9
0.61867	10
0.62933	10
0.64000	11
0.65067	13
0.66133	13
0.67200	13
0.68267	12
0.69333	12
0.70400	12
0.71467	13
0.72533	14
0.73600	14
0.74667	14
0.75733	13
0.76800	14
0.77867	14
0.78933	13
0.80000	13
0.81067	14
0.82133	15
0.83200	17
0.84267	20
0.85333	20
0.86400	20
0.87467	19
0.88533	17
0.89600	17
0.90667	16
0.91733	16
0.92800	15
0.93867	15
0.94933	15
0.96000	16
0.97067	16
0.98133	16
0.99200	18
1.00267	18
1.01333	17
1.02400	16
1.03467	16
1.04533	17
1.05600	17
1.06667	16
1.07733	17
1.08800	18
1.09867	19
1.10933	20
1.12000	19
1.13067	20
1.14133	19
1.15200	18
1.16267	18
1.17333	19
1.18400	19
1.19467	18
1.20533	17
1.21600	16
1.22667	15
1.23733	15
1.24800	15
1.25867	17
1.26933	18
1.28000	19
1.29067	18
1.30133	18
1.31200	18
1.32267	19
1.33333	20
1.34400	21
1.35467	22
1.36533	21
1.37600	22
1.38667	24
1.39733	26
1.40800	29
1.41867	32
1.42933	36
1.44000	43
1.45067	49
1.46133	53
1.47200	53
1.48267	51
1.49333	47
1.50400	41
1.51467	38
1.52533	42
1.53600	53
1.54667	72
1.55733	93
1.56800	115
1.57867	137
1.58933	163
1.60000	189
1.61067	217
1.62133	246
1.63200	277
1.64267	309
1.65333	343
1.66400	380
1.67467	421
1.68533	467
1.69600	518
1.70667	574
1.71733	622
1.72800	630
1.73867	585
1.74933	511
1.76000	438
1.77067	377
1.78133	327
1.79200	288
1.80267	254
1.81333	227
1.82400	203
1.83467	182
1.84533	163
1.85600	147
1.86667	130
1.87733	117
1.88800	106
1.89867	94
1.90933	83
1.92000	73
1.93067	64
1.94133	57
1.95200	51
1.96267	46
1.97333	42
1.98400	39
1.99467	36
2.00533	34
2.01600	30
2.02667	27
2.03733	25
2.04800	24
2.05867	22
2.06933	21
2.08000	20
2.09067	20
2.10133	20
2.11200	20
2.12267	19
2.13333	19
2.14400	19
2.15467	19
2.16533	18
2.17600	17
2.18667	16
2.19733	17
2.20800	17
2.21867	17
2.22933	16
2.24000	15
2.25067	16
2.26133	16
2.27200	15
2.28267	15
2.29333	14
2.30400	13
2.31467	12
2.32533	12
2.33600	11
2.34667	11
2.35733	10
2.36800	10
2.37867	10
2.38933	9
2.40000	7
2.41067	7
2.42133	8
2.43200	9
2.44267	10
2.45333	10
2.46400	9
2.47467	8
2.48533	7
2.49600	5
2.50667	5
2.51733	5
2.52800	3
2.53867	3
2.54933	5
2.56000	6
2.57067	7
2.58133	7
2.59200	7
2.60267	9
2.61333	10
2.62400	11
2.63467	14
2.64533	16
2.65600	18
2.66667	19
2.67733	21
2.68800	25
2.69867	30
2.70933	36
2.72000	42
2.73067	52
2.74133	95
2.75200	235
2.76267	448
2.77333	572
2.78400	591
2.79467	564
2.80533	454
2.81600	294
2.82667	169
2.83733	92
2.84800	23
2.85867	-69
2.86933	-125
2.88000	-111
2.89067	-89
2.90133	-91
2.91200	-75
2.92267	-41
2.93333	-24
2.94400	-13
2.95467	8
2.96533	44
2.97600	86
2.98667	115
2.99733	134
3.00800	168
3.01867	231
3.02933	287
3.04000	303
3.05067	310
3.06133	302
3.07200	266
3.08267	223
3.09333	187
3.10400	161
3.11467	146
3.12533	137
3.13600	132
3.14667	130
3.15733	126
3.16800	120
3.17867	114
3.18933	107
3.20000	100
3.21067	96
3.22133	96
3.23200	97
3.24267	101
3.25333	107
3.26400	113
3.27467	116
3.28533	117
3.29600	118
3.30667	115
3.31733	110
3.32800	102
3.33867	92
3.34933	83
3.36000	76
3.37067	71
3.38133	66
3.39200	62
3.40267	59
3.41333	57
3.42400	55
3.43467	54
3.44533	54
3.45600	54
3.46667	55
3.47733	55
3.48800	58
3.49867	61
3.50933	65
3.52000	70
3.53067	76
3.54133	82
3.55200	87
3.56267	94
3.57333	103
3.58400	116
3.59467	131
3.60533	148
3.61600	169
3.62667	190
3.63733	207
3.64800	219
3.65867	227
3.66933	232
3.68000	236
3.69067	240
3.70133	247
3.71200	258
3.72267	271
3.73333	286
3.74400	300
3.75467	311
3.76533	321
3.77600	331
3.78667	336
3.79733	340
3.80800	342
3.81867	341
3.82933	338
3.84000	334
3.85067	329
3.86133	324
3.87200	318
3.88267	310
3.89333	301
3.90400	291
3.91467	281
3.92533	271
3.93600	261
3.94667	250
3.95733	239
3.96800	231
3.97867	221
3.98933	212
4.00000	204
4.01067	196
4.02133	187
4.03200	180
4.04267	174
4.05333	168
4.06400	162
4.07467	157
4.08533	153
4.09600	148
4.10667	143
4.11733	140
4.12800	136
4.13867	134
4.14933	132
4.16000	130
4.17067	128
4.18133	125
4.19200	122
4.20267	119
4.21333	115
4.22400	112
4.23467	111
4.24533	110
4.25600	108
4.26667	106
4.27733	106
4.28800	103
4.29867	102
4.30933	101
4.32000	101
4.33067	100
4.34133	100
4.35200	100
4.36267	99
4.37333	97
4.38400	96
4.39467	96
4.40533	95
4.41600	93
4.42667	91
4.43733	91
4.44800	89
4.45867	86
4.46933	83
4.48000	82
4.49067	81
4.50133	79
4.51200	78
4.52267	79
4.53333	77
4.54400	77
4.55467	78
4.56533	78
4.57600	79
4.58667	81
4.59733	84
4.60800	86
4.61867	88
4.62933	91
4.64000	95
4.65067	99
4.66133	104
4.67200	108
4.68267	109
4.69333	108
4.70400	108
4.71467	108
4.72533	106
4.73600	103
4.74667	101
4.75733	98
4.76800	96
4.77867	93
4.78933	92
4.80000	90
4.81067	87
4.82133	85
4.83200	83
4.84267	81
4.85333	79
4.86400	76
4.87467	72
4.88533	69
4.89600	67
4.90667	66
4.91733	64
4.92800	62
4.93867	62
4.94933	62
4.96000	63
4.97067	63
4.98133	62
4.99200	61
5.00267	59
5.01333	56
5.02400	55
5.03467	54
5.04533	54
5.05600	54
5.06667	54
5.07733	55
5.08800	55
5.09867	55
5.10933	57
5.12000	57
5.13067	56
5.14133	57
5.15200	58
5.16267	58
5.17333	59
5.18400	60
5.19467	60
5.20533	59
5.21600	59
5.22667	60
5.23733	60
5.24800	58
5.25867	56
5.26933	54
5.28000	55
5.29067	56
5.30133	55
5.31200	54
5.32267	55
5.33333	56
5.34400	57
5.35467	58
5.36533	57
5.37600	58
5.38667	60
5.39733	60
5.40800	59
5.41867	57
5.42933	55
5.44000	54
5.45067	52
5.46133	53
5.47200	53
5.48267	53
5.49333	53
5.50400	54
5.51467	54
5.52533	54
5.53600	52
5.54667	51
5.55733	51
5.56800	50
5.57867	50
5.58933	49
5.60000	48
5.61067	47
5.62133	46
5.63200	45
5.64267	45
5.65333	45
5.66400	45
5.67467	46
5.68533	49
5.69600	50
5.70667	49
5.71733	49
5.72800	48
5.73867	47
5.74933	47
5.76000	46
5.77067	46
5.78133	47
5.79200	47
5.80267	46
5.81333	47
5.82400	48
5.83467	48
5.84533	48
5.85600	48
5.86667	49
5.87733	50
5.88800	51
5.89867	51
5.90933	50
5.92000	50
5.93067	50
5.94133	50
5.95200	50
5.96267	49
5.97333	48
5.98400	48
5.99467	48
6.00533	48
6.01600	47
6.02667	47
6.03733	47
6.04800	47
6.05867	46
6.06933	46
6.08000	47
6.09067	48
6.10133	48
6.11200	47
6.12267	46
6.13333	47
6.14400	48
6.15467	49
6.16533	48
6.17600	49
6.18667	50
6.19733	50
6.20800	50
6.21867	48
6.22933	47
6.24000	47
6.25067	47
6.26133	45
6.27200	43
6.28267	42
6.29333	41
6.30400	40
6.31467	39
6.32533	39
6.33600	38
6.34667	39
6.35733	40
6.36800	38
6.37867	37
6.38933	35
6.40000	33
6.41067	30
6.42133	27
6.43200	24
6.44267	21
6.45333	18
6.46400	16
6.47467	15
6.48533	14
6.49600	13
6.50667	11
6.51733	13
6.52800	15
6.53867	18
6.54933	21
6.56000	23
6.57067	24
6.58133	25
6.59200	26
6.60267	28
6.61333	29
6.62400	31
6.63467	32
6.64533	32
6.65600	32
6.66667	31
6.67733	32
6.68800	33
6.69867	34
6.70933	33
6.72000	33
6.73067	32
6.74133	32
6.75200	32
6.76267	32
6.77333	32
6.78400	31
6.79467	30
6.80533	29
6.81600	30
6.82667	30
6.83733	30
6.84800	30
6.85867	30
6.86933	30
6.88000	31
6.89067	31
6.90133	31
6.91200	29
6.92267	29
6.93333	30
6.94400	30
6.95467	30
6.96533	30
6.97600	29
6.98667	28
6.99733	28
7.00800	28
7.01867	28
7.02933	28
7.04000	27
7.05067	27
7.06133	27
7.07200	26
7.08267	26
7.09333	27
7.10400	27
7.11467	27
7.12533	26
7.13600	26
7.14667	25
7.15733	24
7.16800	24
7.17867	25
7.18933	25
7.20000	25
7.21067	26
7.22133	26
7.23200	25
7.24267	25
7.25333	24
7.26400	24
7.27467	25
7.28533	25
7.29600	24
7.30667	24
7.31733	24
7.32800	23
7.33867	23
7.34933	22
7.36000	20
7.37067	20
7.38133	22
7.39200	22
7.40267	23
7.41333	22
7.42400	22
7.43467	22
7.44533	23
7.45600	23
7.46667	24
7.47733	24
7.48800	23
7.49867	23
7.50933	24
7.52000	24
7.53067	24
7.54133	24
7.55200	23
7.56267	22
7.57333	22
7.58400	23
7.59467	24
7.60533	26
7.61600	25
7.62667	26
7.63733	27
7.64800	26
7.65867	27
7.66933	27
7.68000	27
7.69067	27
7.70133	28
7.71200	28
7.72267	26
7.73333	25
7.74400	26
7.75467	25
7.76533	25
7.77600	26
7.78667	27
7.79733	27
7.80800	27
7.81867	27
7.82933	28
7.84000	29
7.85067	31
7.86133	33
7.87200	34
7.88267	35
7.89333	36
7.90400	36
7.91467	37
7.92533	37
7.93600	37
7.94667	36
7.95733	36
7.96800	35
7.97867	33
7.98933	32
8.00000	30
8.01067	29
8.02133	30
8.03200	30
8.04267	29
8.05333	27
8.06400	27
8.07467	28
8.08533	29
8.09600	30
8.10667	29
8.11733	29
8.12800	29
8.13867	28
8.14933	27
8.16000	27
8.17067	27
8.18133	27
8.19200	26
8.20267	25
8.21333	25
8.22400	25
8.23467	25
8.24533	24
8.25600	24
8.26667	24
8.27733	25
8.28800	24
8.29867	25
8.30933	25
8.32000	25
8.33067	25
8.34133	25
8.35200	25
8.36267	24
8.37333	24
8.38400	25
8.39467	25
8.40533	26
8.41600	25
8.42667	23
8.43733	23
8.44800	22
8.45867	22
8.46933	22
8.48000	22
8.49067	22
8.50133	21
8.51200	22
8.52267	22
8.53333	23
8.54400	23
8.55467	22
8.56533	23
8.57600	22
8.58667	21
8.59733	21
8.60800	22
8.61867	22
8.62933	24
8.64000	26
8.65067	26
8.66133	25
8.67200	26
8.68267	26
8.69333	26
8.70400	26
8.71467	26
8.72533	25
8.73600	25
8.74667	26
8.75733	26
8.76800	25
8.77867	24
8.78933	24
8.80000	25
8.81067	25
8.82133	26
8.83200	26
8.84267	27
8.85333	27
8.86400	26
8.87467	26
8.88533	27
8.89600	27
8.90667	28
8.91733	28
8.92800	27
8.93867	27
8.94933	28
8.96000	26
8.97067	25
8.98133	25
8.99200	25
9.00267	24
9.01333	23
9.02400	22
9.03467	22
9.04533	23
9.05600	23
9.06667	23
9.07733	22
9.08800	24
9.09867	25
9.10933	25
9.12000	25
9.13067	24
9.14133	24
9.15200	24
9.16267	25
9.17333	25
9.18400	24
9.19467	23
9.20533	23
9.21600	22
9.22667	22
9.23733	23
9.24800	24
9.25867	24
9.26933	24
9.28000	23
9.29067	24
9.30133	25
9.31200	27
9.32267	28
9.33333	28
9.34400	27
9.35467	26
9.36533	26
9.37600	27
9.38667	27
9.39733	26
9.40800	26
9.41867	27
9.42933	27
9.44000	27
9.45067	28
9.46133	27
9.47200	27
9.48267	27
9.49333	26
9.50400	26
9.51467	25
9.52533	24
9.53600	24
9.54667	23
9.55733	23
9.56800	23
9.57867	24
9.58933	25
9.60000	25
9.61067	25
9.62133	26
9.63200	27
9.64267	28
9.65333	28
9.66400	28
9.67467	29
9.68533	30
9.69600	29
9.70667	29
9.71733	27
9.72800	27
9.73867	27
9.74933	27
9.76000	26
9.77067	26
9.78133	26
9.79200	26
9.80267	26
9.81333	27
9.82400	29
9.83467	29
9.84533	29
9.85600	28
9.86667	28
9.87733	29
9.88800	29
9.89867	28
9.90933	28
9.92000	28
9.93067	30
9.94133	30
9.95200	29
9.96267	30
9.97333	29
9.98400	28
9.99467	29
10.00533	29
10.01600	30
10.02667	31
10.03733	32
10.04800	32
10.05867	32
10.06933	33
10.08000	34
10.09067	34
10.10133	34
10.11200	35
10.12267	35
10.13333	36
10.14400	37
10.15467	37
10.16533	37
10.17600	38
10.18667	39
10.19733	39
10.20800	38
10.21867	38
10.22933	37
10.24000	38
10.25067	38
10.26133	38
10.27200	38
10.28267	38
10.29333	37
10.30400	36
10.31467	36
10.32533	35
10.33600	35
10.34667	35
10.35733	35
10.36800	35
10.37867	35
10.38933	35
10.40000	33
10.41067	33
10.42133	33
10.43200	34
10.44267	34
10.45333	34
10.46400	33
10.47467	33
10.48533	31
10.49600	31
10.50667	30
10.51733	29
10.52800	29
10.53867	29
10.54933	29
10.56000	29
10.57067	30
10.58133	31
10.59200	30
10.60267	29
10.61333	31
10.62400	31
10.63467	30
10.64533	30
10.65600	30
10.66667	31
10.67733	31
10.68800	32
10.69867	32
10.70933	32
10.72000	32
10.73067	32
10.74133	33
10.75200	34
10.76267	33
10.77333	31
10.78400	31
10.79467	31
10.80533	30
10.81600	29
10.82667	28
10.83733	28
10.84800	28
10.85867	28
10.86933	29
10.88000	30
10.89067	29
10.90133	28
10.91200	28
10.92267	28
10.93333	29
10.94400	30
10.95467	31
10.96533	32
10.97600	32
10.98667	32
10.99733	32
11.00800	33
11.01867	34
11.02933	34
11.04000	35
11.05067	36
11.06133	35
11.07200	34
11.08267	35
11.09333	35
11.10400	34
11.11467	34
11.12533	34
11.13600	35
11.14667	35
11.15733	35
11.16800	34
11.17867	33
11.18933	32
11.20000	33
11.21067	35
11.22133	36
11.23200	37
11.24267	37
11.25333	39
11.26400	40
11.27467	40
11.28533	39
11.29600	40
11.30667	41
11.31733	42
11.32800	43
11.33867	43
11.34933	43
11.36000	44
11.37067	45
11.38133	45
11.39200	46
11.40267	46
11.41333	46
11.42400	47
11.43467	47
11.44533	48
11.45600	49
11.46667	50
11.47733	51
11.48800	51
11.49867	51
11.50933	51
11.52000	51
11.53067	51
11.54133	52
11.55200	51
11.56267	50
11.57333	48
11.58400	47
11.59467	47
11.60533	46
11.61600	45
11.62667	45
11.63733	45
11.64800	45
11.65867	45
11.66933	46
11.68000	46
11.69067	46
11.70133	45
11.71200	45
11.72267	45
11.73333	44
11.74400	43
11.75467	43
11.76533	43
11.77600	44
11.78667	44
11.79733	43
11.80800	44
11.81867	45
11.82933	46
11.84000	47
11.85067	49
11.86133	51
11.87200	51
11.88267	52
11.89333	53
11.90400	55
11.91467	57
11.92533	61
11.93600	64
11.94667	65
11.95733	67
11.96800	70
11.97867	73
11.98933	76
12.00000	78
12.01067	80
12.02133	83
12.03200	85
12.04267	86
12.05333	86
12.06400	86
12.07467	85
12.08533	82
12.09600	80
12.10667	78
12.11733	77
12.12800	76
12.13867	75
12.14933	74
12.16000	73
12.17067	72
12.18133	70
12.19200	69
12.20267	69
12.21333	69
12.22400	68
12.23467	68
12.24533	67
12.25600	66
12.26667	65
12.27733	65
12.28800	65
12.29867	65
12.30933	65
12.32000	66
12.33067	67
12.34133	68
12.35200	69
12.36267	69
12.37333	69
12.38400	70
12.39467	72
12.40533	72
12.41600	71
12.42667	70
12.43733	70
12.44800	70
12.45867	69
12.46933	68
12.48000	68
12.49067	69
12.50133	71
12.51200	72
12.52267	72
12.53333	73
12.54400	75
12.55467	76
12.56533	75
12.57600	75
12.58667	77
12.59733	78
12.60800	78
12.61867	76
12.62933	77
12.64000	78
12.65067	78
12.66133	78
12.67200	77
12.68267	78
12.69333	78
12.70400	78
12.71467	77
12.72533	75
12.73600	72
12.74667	71
12.75733	70
12.76800	69
12.77867	69
12.78933	68
12.80000	69
12.81067	69
12.82133	69
12.83200	68
12.84267	68
12.85333	69
12.86400	69
12.87467	69
12.88533	69
12.89600	70
12.90667	69
12.91733	68
12.92800	69
12.93867	69
12.94933	68
12.96000	68
12.97067	68
12.98133	68
12.99200	70
13.00267	69
13.01333	70
13.02400	70
13.03467	70
13.04533	70
13.05600	70
13.06667	72
13.07733	73
13.08800	72
13.09867	72
13.10933	73
13.12000	73
13.13067	73
13.14133	72
13.15200	72
13.16267	72
13.17333	72
13.18400	72
13.19467	73
13.20533	75
13.21600	76
13.22667	76
13.23733	74
13.24800	72
13.25867	72
13.26933	73
13.28000	72
13.29067	72
13.30133	74
13.31200	76
13.32267	76
13.33333	76
13.34400	76
13.35467	74
13.36533	73
13.37600	72
13.38667	73
13.39733	74
13.40800	75
13.41867	75
13.42933	75
13.44000	74
13.45067	73
13.46133	74
13.47200	75
13.48267	75
13.49333	75
13.50400	76
13.51467	75
13.52533	75
13.53600	76
13.54667	75
13.55733	76
13.56800	77
13.57867	78
13.58933	78
13.60000	77
13.61067	77
13.62133	76
13.63200	76
13.64267	75
13.65333	76
13.66400	75
13.67467	75
13.68533	76
13.69600	77
13.70667	77
13.71733	78
13.72800	78
13.73867	79
13.74933	80
13.76000	80
13.77067	79
13.78133	80
13.79200	80
13.80267	79
13.81333	78
13.82400	77
13.83467	76
13.84533	75
13.85600	76
13.86667	75
13.87733	75
13.88800	74
13.89867	73
13.90933	74
13.92000	75
13.93067	76
13.94133	76
13.95200	75
13.96267	74
13.97333	75
13.98400	76
13.99467	76
14.00533	78
14.01600	79
14.02667	78
14.03733	78
14.04800	78
14.05867	79
14.06933	80
14.08000	80
14.09067	80
14.10133	80
14.11200	79
14.12267	79
14.13333	78
14.14400	79
14.15467	80
14.16533	79
14.17600	79
14.18667	80
14.19733	81
14.20800	82
14.21867	82
14.22933	84
14.24000	85
14.25067	83
14.26133	82
14.27200	81
14.28267	81
14.29333	81
14.30400	81
14.31467	81
14.32533	80
14.33600	80
14.34667	79
14.35733	79
14.36800	79
14.37867	78
14.38933	78
14.40000	79
14.41067	80
14.42133	80
14.43200	81
14.44267	82
14.45333	82
14.46400	82
14.47467	82
14.48533	82
14.49600	81
14.50667	81
14.51733	83
14.52800	83
14.53867	84
14.54933	85
14.56000	87
14.57067	87
14.58133	87
14.59200	89
14.60267	89
14.61333	89
14.62400	88
14.63467	87
14.64533	87
14.65600	89
14.66667	91
14.67733	92
14.68800	92
14.69867	92
14.70933	93
14.72000	92
14.73067	91
14.74133	91
14.75200	91
14.76267	91
14.77333	91
14.78400	90
14.79467	89
14.80533	89
14.81600	89
14.82667	88
14.83733	89
14.84800	90
14.85867	90
14.86933	91
14.88000	90
14.89067	90
14.90133	89
14.91200	89
14.92267	89
14.93333	89
14.94400	89
14.95467	88
14.96533	88
14.97600	89
14.98667	89
14.99733	90
15.00800	90
15.01867	90
15.02933	90
15.04000	91
15.05067	92
15.06133	93
15.07200	94
15.08267	95
15.09333	95
15.10400	95
15.11467	96
15.12533	97
15.13600	96
15.14667	96
15.15733	96
15.16800	96
15.17867	96
15.18933	95
15.20000	95
15.21067	95
15.22133	96
15.23200	97
15.24267	96
15.25333	97
15.26400	99
15.27467	100
15.28533	102
15.29600	103
15.30667	103
15.31733	103
15.32800	105
15.33867	106
15.34933	106
15.36000	107
15.37067	108
15.38133	109
15.39200	110
15.40267	111
15.41333	111
15.42400	111
15.43467	110
15.44533	110
15.45600	111
15.46667	112
15.47733	111
15.48800	110
15.49867	110
15.50933	111
15.52000	110
15.53067	108
15.54133	107
15.55200	108
15.56267	107
15.57333	107
15.58400	105
15.59467	104
15.60533	104
15.61600	103
15.62667	102
15.63733	103
15.64800	102
15.65867	101
15.66933	102
15.68000	102
15.69067	102
15.70133	102
15.71200	103
15.72267	103
15.73333	102
15.74400	102
15.75467	102
15.76533	101
15.77600	99
15.78667	99
15.79733	99
15.80800	98
15.81867	97
15.82933	97
15.84000	97
15.85067	97
15.86133	98
15.87200	98
15.88267	98
15.89333	98
15.90400	98
15.91467	98
15.92533	101
15.93600	102
15.94667	101
15.95733	100
15.96800	100
15.97867	101
15.98933	102
16.00000	103
16.01067	104
16.02133	106
16.03200	108
16.04267	110
16.05333	112
16.06400	113
16.07467	114
16.08533	115
16.09600	118
16.10667	122
16.11733	127
16.12800	134
16.13867	142
16.14933	149
16.16000	158
16.17067	166
16.18133	177
16.19200	187
16.20267	198
16.21333	209
16.22400	221
16.23467	234
16.24533	245
16.25600	258
16.26667	273
16.27733	286
16.28800	298
16.29867	309
16.30933	320
16.32000	331
16.33067	340
16.34133	346
16.35200	352
16.36267	358
16.37333	362
16.38400	366
16.39467	367
16.40533	367
16.41600	366
16.42667	365
16.43733	361
16.44800	356
16.45867	350
16.46933	344
16.48000	336
16.49067	326
16.50133	315
16.51200	304
16.52267	294
16.53333	283
16.54400	271
16.55467	259
16.56533	248
16.57600	237
16.58667	226
16.59733	214
16.60800	204
16.61867	196
16.62933	187
16.64000	179
16.65067	171
16.66133	165
16.67200	157
16.68267	150
16.69333	143
16.70400	137
16.71467	133
16.72533	130
16.73600	126
16.74667	124
16.75733	121
16.76800	118
16.77867	114
16.78933	111
16.80000	107
16.81067	105
16.82133	105
16.83200	104
16.84267	104
16.85333	105
16.86400	103
16.87467	102
16.88533	101
16.89600	100
16.90667	100
16.91733	101
16.92800	100
16.93867	100
16.94933	100
16.96000	99
16.97067	100
16.98133	99
16.99200	98
17.00267	97
17.01333	97
17.02400	97
17.03467	97
17.04533	97
17.05600	98
17.06667	98
17.07733	97
17.08800	98
17.09867	99
17.10933	99
17.12000	99
17.13067	100
17.14133	101
17.15200	100
17.16267	99
17.17333	97
17.18400	99
17.19467	101
17.20533	101
17.21600	101
17.22667	101
17.23733	100
17.24800	101
17.25867	100
17.26933	100
17.28000	100
17.29067	100
17.30133	100
17.31200	99
17.32267	98
17.33333	97
17.34400	98
17.35467	98
17.36533	98
17.37600	98
17.38667	96
17.39733	96
17.40800	97
17.41867	98
17.42933	99
17.44000	99
17.45067	100
17.46133	100
17.47200	102
17.48267	103
17.49333	103
17.50400	103
17.51467	102
17.52533	101
17.53600	102
17.54667	102
17.55733	101
17.56800	101
17.57867	102
17.58933	102
17.60000	102
17.61067	103
17.62133	103
17.63200	102
17.64267	101
17.65333	102
17.66400	103
17.67467	103
17.68533	103
17.69600	103
17.70667	103
17.71733	103
17.72800	102
17.73867	101
17.74933	100
17.76000	99
17.77067	99
17.78133	99
17.79200	99
17.80267	100
17.81333	100
17.82400	101
17.83467	101
17.84533	100
17.85600	99
17.86667	98
17.87733	98
17.88800	99
17.89867	99
17.90933	100
17.92000	99
17.93067	99
17.94133	99
17.95200	99
17.96267	98
17.97333	98
17.98400	99
17.99467	99
18.00533	99
18.01600	100
18.02667	99
18.03733	98
18.04800	98
18.05867	98
18.06933	99
18.08000	99
18.09067	99
18.10133	98
18.11200	99
18.12267	100
18.13333	100
18.14400	99
18.15467	99
18.16533	99
18.17600	98
18.18667	97
18.19733	97
18.20800	96
18.21867	96
18.22933	96
18.24000	95
18.25067	95
18.26133	95
18.27200	94
18.28267	94
18.29333	94
18.30400	94
18.31467	93
18.32533	93
18.33600	94
18.34667	94
18.35733	95
18.36800	97
18.37867	98
18.38933	98
18.40000	98
18.41067	98
18.42133	98
18.43200	99
18.44267	100
18.45333	100
18.46400	100
18.47467	100
18.48533	100
18.49600	101
18.50667	101
18.51733	102
18.52800	102
18.53867	101
18.54933	101
18.56000	100
18.57067	99
18.58133	100
18.59200	101
18.60267	102
18.61333	102
18.62400	103
18.63467	103
18.64533	102
18.65600	101
18.66667	102
18.67733	103
18.68800	102
18.69867	102
18.70933	103
18.72000	102
18.73067	101
18.74133	101
18.75200	101
18.76267	102
18.77333	104
18.78400	105
18.79467	106
18.80533	106
18.81600	108
18.82667	110
18.83733	109
18.84800	110
18.85867	111
18.86933	113
18.88000	115
18.89067	116
18.90133	118
18.91200	121
18.92267	123
18.93333	126
18.94400	129
18.95467	134
18.96533	139
18.97600	146
18.98667	152
18.99733	157
19.00800	164
19.01867	173
19.02933	183
19.04000	193
19.05067	203
19.06133	214
19.07200	226
19.08267	239
19.09333	253
19.10400	269
19.11467	284
19.12533	300
19.13600	315
19.14667	328
19.15733	342
19.16800	357
19.17867	371
19.18933	383
19.20000	395
19.21067	408
19.22133	420
19.23200	430
19.24267	438
19.25333	446
19.26400	451
19.27467	455
19.28533	459
19.29600	460
19.30667	460
19.31733	459
19.32800	456
19.33867	453
19.34933	447
19.36000	440
19.37067	433
19.38133	424
19.39200	413
19.40267	402
19.41333	391
19.42400	379
19.43467	367
19.44533	355
19.45600	343
19.46667	329
19.47733	317
19.48800	305
19.49867	293
19.50933	279
19.52000	269
19.53067	258
19.54133	246
19.55200	235
19.56267	225
19.57333	215
19.58400	204
19.59467	195
19.60533	185
19.61600	177
19.62667	169
19.63733	164
19.64800	158
19.65867	152
19.66933	147
19.68000	143
19.69067	139
19.70133	135
19.71200	132
19.72267	128
19.73333	125
19.74400	122
19.75467	121
19.76533	119
19.77600	118
19.78667	117
19.79733	116
19.80800	115
19.81867	114
19.82933	114
19.84000	113
19.85067	113
19.86133	114
19.87200	114
19.88267	112
19.89333	110
19.90400	110
19.91467	110
19.92533	110
19.93600	109
19.94667	108
19.95733	109
19.96800	110
19.97867	109
19.98933	107
20.00000	107
20.01067	108
20.02133	108
20.03200	109
20.04267	110
20.05333	111
20.06400	111
20.07467	110
20.08533	111
20.09600	111
20.10667	110
20.11733	110
20.12800	109
20.13867	108
20.14933	108
20.16000	109
20.17067	109
20.18133	110
20.19200	110
20.20267	110
20.21333	111
20.22400	111
20.23467	110
20.24533	109
20.25600	109
20.26667	109
20.27733	108
20.28800	108
20.29867	108
20.30933	108
20.32000	109
20.33067	109
20.34133	109
20.35200	109
20.36267	108
20.37333	108
20.38400	108
20.39467	109
20.40533	110
20.41600	109
20.42667	108
20.43733	109
20.44800	109
20.45867	109
20.46933	109
20.48000	109
20.49067	109
20.50133	108
20.51200	107
20.52267	108
20.53333	108
20.54400	108
20.55467	107
20.56533	107
20.57600	106
20.58667	106
20.59733	106
20.60800	107
20.61867	108
20.62933	110
20.64000	111
20.65067	112
20.66133	112
20.67200	110
20.68267	109
20.69333	109
20.70400	108
20.71467	106
20.72533	106
20.73600	106
20.74667	106
20.75733	106
20.76800	106
20.77867	107
20.78933	107
20.80000	106
20.81067	105
20.82133	105
20.83200	105
20.84267	104
20.85333	103
20.86400	103
20.87467	103
20.88533	103
20.89600	105
20.90667	107
20.91733	107
20.92800	107
20.93867	107
20.94933	108
20.96000	108
20.97067	108
20.98133	108
20.99200	108
21.00267	109
21.01333	108
21.02400	107
21.03467	105
21.04533	105
21.05600	106
21.06667	106
21.07733	105
21.08800	105
21.09867	106
21.10933	106
21.12000	106
21.13067	107
21.14133	107
21.15200	108
21.16267	109
21.17333	111
21.18400	111
21.19467	111
21.20533	111
21.21600	112
21.22667	111
21.23733	112
21.24800	113
21.25867	112
21.26933	112
21.28000	111
21.29067	110
21.30133	110
21.31200	110
21.32267	109
21.33333	109
21.34400	110
21.35467	110
21.36533	109
21.37600	107
21.38667	107
21.39733	108
21.40800	108
21.41867	108
21.42933	108
21.44000	107
21.45067	106
21.46133	105
21.47200	105
21.48267	107
21.49333	108
21.50400	108
21.51467	109
21.52533	109
21.53600	109
21.54667	110
21.55733	109
21.56800	108
21.57867	106
21.58933	105
21.60000	105
21.61067	104
21.62133	105
21.63200	106
21.64267	105
21.65333	105
21.66400	104
21.67467	104
21.68533	104
21.69600	104
21.70667	104
21.71733	105
21.72800	105
21.73867	105
21.74933	105
21.76000	105
21.77067	106
21.78133	107
21.79200	107
21.80267	108
21.81333	108
21.82400	107
21.83467	107
21.84533	108
21.85600	109
21.86667	110
21.87733	110
21.88800	110
21.89867	111
21.90933	111
21.92000	110
21.93067	109
21.94133	109
21.95200	111
21.96267	111
21.97333	113
21.98400	114
21.99467	116
22.00533	117
22.01600	118
22.02667	119
22.03733	121
22.04800	124
22.05867	127
22.06933	129
22.08000	131
22.09067	135
22.10133	140
22.11200	146
22.12267	152
22.13333	158
22.14400	164
22.15467	170
22.16533	177
22.17600	186
22.18667	195
22.19733	204
22.20800	214
22.21867	226
22.22933	237
22.24000	250
22.25067	263
22.26133	278
22.27200	292
22.28267	305
22.29333	319
22.30400	335
22.31467	348
22.32533	364
22.33600	380
22.34667	395
22.35733	409
22.36800	423
22.37867	437
22.38933	451
22.40000	463
22.41067	476
22.42133	486
22.43200	495
22.44267	504
22.45333	512
22.46400	519
22.47467	526
22.48533	531
22.49600	535
22.50667	538
22.51733	539
22.52800	540
22.53867	538
22.54933	537
22.56000	534
22.57067	529
22.58133	522
22.59200	516
22.60267	509
22.61333	500
22.62400	490
22.63467	479
22.64533	467
22.65600	455
22.66667	443
22.67733	428
22.68800	415
22.69867	402
22.70933	389
22.72000	378
22.73067	365
22.74133	352
22.75200	339
22.76267	327
22.77333	314
22.78400	301
22.79467	289
22.80533	278
22.81600	267
22.82667	256
22.83733	246
22.84800	235
22.85867	226
22.86933	217
22.88000	209
22.89067	202
22.90133	196
22.91200	189
22.92267	183
22.93333	177
22.94400	171
22.95467	165
22.96533	160
22.97600	156
22.98667	153
22.99733	150
23.00800	147
23.01867	143
23.02933	142
23.04000	140
23.05067	138
23.06133	137
23.07200	135
23.08267	132
23.09333	130
23.10400	128
23.11467	126
23.12533	125
23.13600	125
23.14667	124
23.15733	124
23.16800	124
23.17867	124
23.18933	122
23.20000	122
23.21067	121
23.22133	120
23.23200	121
23.24267	121
23.25333	121
23.26400	121
23.27467	119
23.28533	118
23.29600	116
23.30667	116
23.31733	116
23.32800	117
23.33867	117
23.34933	116
23.36000	116
23.37067	116
23.38133	116
23.39200	115
23.40267	115
23.41333	114
23.42400	114
23.43467	113
23.44533	112
23.45600	113
23.46667	114
23.47733	115
23.48800	116
23.49867	117
23.50933	118
23.52000	118
23.53067	118
23.54133	119
23.55200	119
23.56267	120
23.57333	120
23.58400	122
23.59467	122
23.60533	122
23.61600	122
23.62667	123
23.63733	122
23.64800	123
23.65867	123
23.66933	122
23.68000	120
23.69067	120
23.70133	120
23.71200	120
23.72267	120
23.73333	120
23.74400	120
23.75467	120
23.76533	121
23.77600	121
23.78667	121
23.79733	120
23.80800	119
23.81867	118
23.82933	117
23.84000	117
23.85067	116
23.86133	116
23.87200	116
23.88267	115
23.89333	114
23.90400	114
23.91467	113
23.92533	114
23.93600	114
23.94667	114
23.95733	114
23.96800	115
23.97867	115
23.98933	115
24.00000	114
24.01067	113
24.02133	112
24.03200	112
24.04267	114
24.05333	114
24.06400	113
24.07467	112
24.08533	113
24.09600	114
24.10667	114
24.11733	114
24.12800	114
24.13867	114
24.14933	114
24.16000	114
24.17067	113
24.18133	113
24.19200	113
24.20267	113
24.21333	113
24.22400	112
24.23467	112
24.24533	113
24.25600	113
24.26667	113
24.27733	114
24.28800	116
24.29867	116
24.30933	117
24.32000	116
24.33067	116
24.34133	116
24.35200	117
24.36267	118
24.37333	119
24.38400	120
24.39467	120
24.40533	120
24.41600	121
24.42667	121
24.43733	120
24.44800	119
24.45867	118
24.46933	118
24.48000	118
24.49067	118
24.50133	119
24.51200	119
24.52267	119
24.53333	120
24.54400	121
24.55467	121
24.56533	121
24.57600	121
24.58667	121
24.59733	122
24.60800	122
24.61867	121
24.62933	120
24.64000	120
24.65067	120
24.66133	122
24.67200	122
24.68267	121
24.69333	121
24.70400	121
24.71467	121
24.72533	119
24.73600	118
24.74667	118
24.75733	118
24.76800	118
24.77867	119
24.78933	120
24.80000	120
24.81067	120
24.82133	119
24.83200	119
24.84267	120
24.85333	121
24.86400	122
24.87467	121
24.88533	122
24.89600	123
24.90667	123
24.91733	123
24.92800	123
24.93867	123
24.94933	122
24.96000	122
24.97067	121
24.98133	121
24.99200	122
25.00267	122
25.01333	122
25.02400	121
25.03467	120
25.04533	121
25.05600	121
25.06667	122
25.07733	122
25.08800	122
25.09867	123
25.10933	124
25.12000	124
25.13067	124
25.14133	124
25.15200	124
25.16267	124
25.17333	124
25.18400	125
25.19467	126
25.20533	127
25.21600	127
25.22667	127
25.23733	126
25.24800	127
25.25867	128
25.26933	128
25.28000	128
25.29067	128
25.30133	128
25.31200	129
25.32267	129
25.33333	128
25.34400	126
25.35467	126
25.36533	127
25.37600	128
25.38667	128
25.39733	129
25.40800	130
25.41867	128
25.42933	127
25.44000	126
25.45067	126
25.46133	125
25.47200	126
25.48267	126
25.49333	125
25.50400	127
25.51467	129
25.52533	130
25.53600	131
25.54667	132
25.55733	132
25.56800	132
25.57867	132
25.58933	131
25.60000	131
25.61067	132
25.62133	133
25.63200	132
25.64267	133
25.65333	136
25.66400	137
25.67467	138
25.68533	138
25.69600	138
25.70667	137
25.71733	137
25.72800	136
25.73867	136
25.74933	137
25.76000	137
25.77067	139
25.78133	140
25.79200	139
25.80267	139
25.81333	139
25.82400	139
25.83467	139
25.84533	139
25.85600	137
25.86667	135
25.87733	134
25.88800	134
25.89867	134
25.90933	133
25.92000	134
25.93067	134
25.94133	135
25.95200	135
25.96267	134
25.97333	134
25.98400	133
25.99467	134
26.00533	134
26.01600	135
26.02667	135
26.03733	135
26.04800	135
26.05867	136
26.06933	137
26.08000	137
26.09067	137
26.10133	135
26.11200	135
26.12267	135
26.13333	136
26.14400	136
26.15467	136
26.16533	136
26.17600	136
26.18667	137
26.19733	137
26.20800	137
26.21867	137
26.22933	137
26.24000	138
26.25067	138
26.26133	139
26.27200	139
26.28267	140
26.29333	140
26.30400	140
26.31467	140
26.32533	140
26.33600	139
26.34667	140
26.35733	141
26.36800	141
26.37867	141
26.38933	140
26.40000	140
26.41067	141
26.42133	141
26.43200	142
26.44267	142
26.45333	144
26.46400	146
26.47467	148
26.48533	149
26.49600	149
26.50667	149
26.51733	148
26.52800	148
26.53867	148
26.54933	150
26.56000	151
26.57067	150
26.58133	150
26.59200	149
26.60267	148
26.61333	148
26.62400	149
26.63467	150
26.64533	150
26.65600	150
26.66667	150
26.67733	149
26.68800	150
26.69867	151
26.70933	151
26.72000	149
26.73067	148
26.74133	148
26.75200	149
26.76267	148
26.77333	148
26.78400	148
26.79467	149
26.80533	148
26.81600	148
26.82667	148
26.83733	149
26.84800	149
26.85867	149
26.86933	148
26.88000	147
26.89067	147
26.90133	147
26.91200	149
26.92267	149
26.93333	148
26.94400	147
26.95467	146
26.96533	145
26.97600	145
26.98667	144
26.99733	143
27.00800	144
27.01867	144
27.02933	145
27.04000	145
27.05067	144
27.06133	143
27.07200	142
27.08267	141
27.09333	141
27.10400	141
27.11467	141
27.12533	141
27.13600	141
27.14667	143
27.15733	144
27.16800	144
27.17867	143
27.18933	142
27.20000	142
27.21067	143
27.22133	143
27.23200	142
27.24267	141
27.25333	141
27.26400	142
27.27467	142
27.28533	143
27.29600	142
27.30667	140
27.31733	139
27.32800	139
27.33867	138
27.34933	137
27.36000	138
27.37067	138
27.38133	137
27.39200	136
27.40267	135
27.41333	135
27.42400	135
27.43467	134
27.44533	133
27.45600	132
27.46667	133
27.47733	134
27.48800	134
27.49867	133
27.50933	132
27.52000	132
27.53067	133
27.54133	133
27.55200	134
27.56267	133
27.57333	132
27.58400	132
27.59467	132
27.60533	132
27.61600	133
27.62667	132
27.63733	131
27.64800	131
27.65867	133
27.66933	134
27.68000	133
27.69067	133
27.70133	134
27.71200	135
27.72267	136
27.73333	136
27.74400	137
27.75467	138
27.76533	139
27.77600	138
27.78667	137
27.79733	137
27.80800	136
27.81867	135
27.82933	133
27.84000	133
27.85067	134
27.86133	134
27.87200	135
27.88267	136
27.89333	136
27.90400	136
27.91467	136
27.92533	136
27.93600	136
27.94667	135
27.95733	135
27.96800	135
27.97867	135
27.98933	136
28.00000	135
28.01067	135
28.02133	136
28.03200	137
28.04267	137
28.05333	136
28.06400	135
28.07467	136
28.08533	137
28.09600	137
28.10667	137
28.11733	138
28.12800	137
28.13867	137
28.14933	136
28.16000	136
28.17067	137
28.18133	137
28.19200	137
28.20267	137
28.21333	138
28.22400	138
28.23467	138
28.24533	139
28.25600	139
28.26667	140
28.27733	141
28.28800	140
28.29867	140
28.30933	140
28.32000	139
28.33067	138
28.34133	138
28.35200	138
28.36267	138
28.37333	137
28.38400	137
28.39467	137
28.40533	136
28.41600	135
28.42667	135
28.43733	136
28.44800	136
28.45867	137
28.46933	138
28.48000	137
28.49067	137
28.50133	138
28.51200	138
28.52267	138
28.53333	137
28.54400	137
28.55467	138
28.56533	138
28.57600	138
28.58667	138
28.59733	138
28.60800	139
28.61867	140
28.62933	140
28.64000	140
28.65067	141
28.66133	141
28.67200	141
28.68267	140
28.69333	139
28.70400	138
28.71467	138
28.72533	137
28.73600	137
28.74667	137
28.75733	137
28.76800	137
28.77867	137
28.78933	139
28.80000	140
28.81067	139
28.82133	139
28.83200	138
28.84267	138
28.85333	137
28.86400	137
28.87467	138
28.88533	137
28.89600	136
28.90667	137
28.91733	137
28.92800	138
28.93867	138
28.94933	139
28.96000	139
28.97067	139
28.98133	139
28.99200	138
29.00267	139
29.01333	139
29.02400	139
29.03467	140
29.04533	140
29.05600	140
29.06667	141
29.07733	139
29.08800	138
29.09867	137
29.10933	136
29.12000	135
29.13067	135
29.14133	136
29.15200	136
29.16267	136
29.17333	136
29.18400	136
29.19467	136
29.20533	135
29.21600	135
29.22667	135
29.23733	135
29.24800	136
29.25867	137
29.26933	138
29.28000	138
29.29067	137
29.30133	137
29.31200	138
29.32267	137
29.33333	138
29.34400	139
29.35467	139
29.36533	139
29.37600	139
29.38667	139
29.39733	139
29.40800	139
29.41867	139
29.42933	139
29.44000	138
29.45067	139
29.46133	139
29.47200	140
29.48267	142
29.49333	142
29.50400	143
29.51467	142
29.52533	142
29.53600	142
29.54667	141
29.55733	140
29.56800	139
29.57867	140
29.58933	140
29.60000	141
29.61067	140
29.62133	140
29.63200	139
29.64267	139
29.65333	138
29.66400	138
29.67467	138
29.68533	138
29.69600	137
29.70667	138
29.71733	139
29.72800	137
29.73867	137
29.74933	138
29.76000	138
29.77067	138
29.78133	138
29.79200	138
29.80267	138
29.81333	138
29.82400	138
29.83467	138
29.84533	137
29.85600	137
29.86667	137
29.87733	136
29.88800	136
29.89867	136
29.90933	134
29.92000	135
29.93067	136
29.94133	136
29.95200	137
29.96267	138
29.97333	138
29.98400	138
29.99467	139
30.00533	139


