[Header]
Application Name	LabSolutions
Version	5.117
Data File Name	C:\LabSolutions\Data\COLUMN_QC\28-09-2023_C18\Data\Tanaka_MixB.lcd
Output Date	12/7/2023
Output Time	2:50:37 PM

[File Information]
Type	Data File
Generated	9/28/2023 2:59:22 PM
Generated by	user
Modified	9/28/2023 3:29:43 PM
Modified by	user

[Sample Information]
Operator Name	user
Acquired	9/28/2023 2:59:41 PM
Sample Type	0:Unknown
Level	0
Sample Name	Tanaka_MixB
Sample ID	Tanaka_MixB
ISTD Amount1	1
ISTD Amount2	1
ISTD Amount3	1
ISTD Amount4	1
ISTD Amount5	1
ISTD Amount6	1
ISTD Amount7	1
ISTD Amount8	1
ISTD Amount9	1
ISTD Amount10	1
ISTD Amount11	1
ISTD Amount12	1
ISTD Amount13	1
ISTD Amount14	1
ISTD Amount15	1
ISTD Amount16	1
ISTD Amount17	1
ISTD Amount18	1
ISTD Amount19	1
ISTD Amount20	1
ISTD Amount21	1
ISTD Amount22	1
ISTD Amount23	1
ISTD Amount24	1
ISTD Amount25	1
ISTD Amount26	1
ISTD Amount27	1
ISTD Amount28	1
ISTD Amount29	1
ISTD Amount30	1
ISTD Amount31	1
ISTD Amount32	1
Sample Amount	1
Dilution Factor	1
Vial#	2
Injection Volume	10

[Original Files]
Data File	C:\LabSolutions\Data\COLUMN_QC\28-09-2023_C18\Data\Tanaka_MixB.lcd
Method File	C:\LabSolutions\Data\Main Methods\Tanaka_mixAB_28-09-2023.lcm
Batch File	C:\LabSolutions\Data\COLUMN_QC\28-09-2023_C18\Batches\C18_RefColumn_28-09-2023.lcb
Report Format File	C:\LabSolutions\System\DEFAULT.lsr

[File Description]


[Configuration]
Instrument Name	HPLC
Instrument #	1
Line #	1
# of Detectors	1
Detector ID	PDA
Detector Name	PDA
# of Channels	1

[Peak Table(PDA-Ch1)]
# of Peaks	3
Peak#	R.Time	I.Time	F.Time	Area	Height	A/H	Conc.	Mark	ID#	Name	k'	Plate #	Plate Ht.	Tailing	Resolution	Sep.Factor	Area Ratio	Height Ratio	Conc. %	Norm Conc.
1	2.681	2.475	2.976	8925163	1328513	6.718	0.000	   			0.000	3309	45.329	0.880	0.000	0.000	0	0	0.000	0.000
2	3.119	2.976	3.349	5915812	986977	5.994	0.000	 V 			0.163	5017	29.901	1.226	2.417	0.000	0	0	0.000	0.000
3	3.486	3.349	4.544	2679123	422666	6.339	0.000	 V 			0.300	5687	26.375	1.196	2.031	1.837	0	0	0.000	0.000

[Compound Results(PDA)]
# of IDs	0

[PDA Multi Chromatogram(Ch1)]
# of Points	      2814
Interval(msec)	640
Start Time(min)	0
End Time(min)	30.0053
Intensity Units	mAU
Intensity Multiplier	1
Type	MultiChrom
Wavelength(nm)	254
Bandwidth(nm)	4
R.Time (min)	Intensity
0.00000	0
0.01067	0
0.02133	0
0.03200	0
0.04267	-1
0.05333	-3
0.06400	-5
0.07467	-7
0.08533	-9
0.09600	-10
0.10667	-12
0.11733	-13
0.12800	-14
0.13867	-14
0.14933	-16
0.16000	-17
0.17067	-19
0.18133	-22
0.19200	-23
0.20267	-26
0.21333	-28
0.22400	-31
0.23467	-33
0.24533	-37
0.25600	-40
0.26667	-44
0.27733	-47
0.28800	-49
0.29867	-52
0.30933	-54
0.32000	-57
0.33067	-59
0.34133	-62
0.35200	-66
0.36267	-70
0.37333	-73
0.38400	-77
0.39467	-81
0.40533	-85
0.41600	-88
0.42667	-91
0.43733	-93
0.44800	-96
0.45867	-97
0.46933	-98
0.48000	-100
0.49067	-102
0.50133	-104
0.51200	-105
0.52267	-107
0.53333	-109
0.54400	-111
0.55467	-113
0.56533	-114
0.57600	-116
0.58667	-119
0.59733	-122
0.60800	-126
0.61867	-128
0.62933	-131
0.64000	-135
0.65067	-139
0.66133	-142
0.67200	-146
0.68267	-149
0.69333	-151
0.70400	-154
0.71467	-157
0.72533	-161
0.73600	-163
0.74667	-164
0.75733	-167
0.76800	-170
0.77867	-173
0.78933	-175
0.80000	-177
0.81067	-180
0.82133	-182
0.83200	-185
0.84267	-187
0.85333	-190
0.86400	-192
0.87467	-193
0.88533	-194
0.89600	-197
0.90667	-199
0.91733	-202
0.92800	-203
0.93867	-204
0.94933	-206
0.96000	-207
0.97067	-209
0.98133	-211
0.99200	-212
1.00267	-214
1.01333	-215
1.02400	-216
1.03467	-217
1.04533	-220
1.05600	-222
1.06667	-224
1.07733	-227
1.08800	-229
1.09867	-231
1.10933	-235
1.12000	-238
1.13067	-241
1.14133	-243
1.15200	-245
1.16267	-248
1.17333	-251
1.18400	-254
1.19467	-256
1.20533	-258
1.21600	-259
1.22667	-262
1.23733	-264
1.24800	-266
1.25867	-267
1.26933	-268
1.28000	-270
1.29067	-273
1.30133	-275
1.31200	-278
1.32267	-279
1.33333	-279
1.34400	-279
1.35467	-278
1.36533	-277
1.37600	-276
1.38667	-273
1.39733	-268
1.40800	-264
1.41867	-259
1.42933	-251
1.44000	-244
1.45067	-237
1.46133	-229
1.47200	-222
1.48267	-218
1.49333	-220
1.50400	-229
1.51467	-244
1.52533	-262
1.53600	-278
1.54667	-293
1.55733	-304
1.56800	-313
1.57867	-320
1.58933	-327
1.60000	-333
1.61067	-336
1.62133	-340
1.63200	-344
1.64267	-347
1.65333	-349
1.66400	-352
1.67467	-355
1.68533	-360
1.69600	-363
1.70667	-365
1.71733	-368
1.72800	-371
1.73867	-375
1.74933	-379
1.76000	-381
1.77067	-384
1.78133	-386
1.79200	-389
1.80267	-391
1.81333	-392
1.82400	-394
1.83467	-396
1.84533	-397
1.85600	-398
1.86667	-400
1.87733	-402
1.88800	-405
1.89867	-408
1.90933	-410
1.92000	-412
1.93067	-413
1.94133	-417
1.95200	-421
1.96267	-425
1.97333	-429
1.98400	-431
1.99467	-434
2.00533	-437
2.01600	-440
2.02667	-442
2.03733	-444
2.04800	-448
2.05867	-451
2.06933	-453
2.08000	-455
2.09067	-456
2.10133	-458
2.11200	-461
2.12267	-464
2.13333	-466
2.14400	-469
2.15467	-470
2.16533	-472
2.17600	-475
2.18667	-477
2.19733	-479
2.20800	-482
2.21867	-484
2.22933	-487
2.24000	-490
2.25067	-492
2.26133	-494
2.27200	-497
2.28267	-500
2.29333	-503
2.30400	-505
2.31467	-507
2.32533	-510
2.33600	-513
2.34667	-515
2.35733	-516
2.36800	-518
2.37867	-519
2.38933	-521
2.40000	-523
2.41067	-526
2.42133	-528
2.43200	-531
2.44267	-533
2.45333	-536
2.46400	-538
2.47467	-540
2.48533	-523
2.49600	122
2.50667	5030
2.51733	20249
2.52800	47076
2.53867	80395
2.54933	116776
2.56000	157038
2.57067	200365
2.58133	245721
2.59200	299698
2.60267	372116
2.61333	463986
2.62400	572097
2.63467	701654
2.64533	861110
2.65600	1047508
2.66667	1225810
2.67733	1327930
2.68800	1307586
2.69867	1178502
2.70933	987797
2.72000	781081
2.73067	589087
2.74133	427323
2.75200	300176
2.76267	205403
2.77333	137658
2.78400	90802
2.79467	59214
2.80533	38326
2.81600	24709
2.82667	15915
2.83733	10266
2.84800	6645
2.85867	4321
2.86933	2826
2.88000	1861
2.89067	1239
2.90133	841
2.91200	592
2.92267	435
2.93333	333
2.94400	258
2.95467	190
2.96533	127
2.97600	92
2.98667	177
2.99733	702
3.00800	2648
3.01867	8612
3.02933	24309
3.04000	59747
3.05067	128078
3.06133	240427
3.07200	397810
3.08267	584723
3.09333	769515
3.10400	913435
3.11467	986305
3.12533	979341
3.13600	904886
3.14667	786302
3.15733	648065
3.16800	510122
3.17867	385746
3.18933	281678
3.20000	199582
3.21067	137860
3.22133	93258
3.23200	62046
3.24267	40759
3.25333	26529
3.26400	17161
3.27467	11058
3.28533	7106
3.29600	4555
3.30667	2906
3.31733	1836
3.32800	1141
3.33867	702
3.34933	482
3.36000	594
3.37067	1498
3.38133	4403
3.39200	11836
3.40267	27944
3.41333	57780
3.42400	105124
3.43467	169487
3.44533	244347
3.45600	318234
3.46667	378249
3.47733	414299
3.48800	421918
3.49867	402661
3.50933	362521
3.52000	309623
3.53067	252085
3.54133	196508
3.55200	147290
3.56267	106608
3.57333	74844
3.58400	51191
3.59467	34255
3.60533	22511
3.61600	14572
3.62667	9308
3.63733	5866
3.64800	3636
3.65867	2197
3.66933	1270
3.68000	669
3.69067	276
3.70133	15
3.71200	-161
3.72267	-281
3.73333	-366
3.74400	-429
3.75467	-476
3.76533	-512
3.77600	-542
3.78667	-566
3.79733	-586
3.80800	-602
3.81867	-617
3.82933	-632
3.84000	-644
3.85067	-655
3.86133	-667
3.87200	-678
3.88267	-688
3.89333	-697
3.90400	-704
3.91467	-711
3.92533	-718
3.93600	-724
3.94667	-729
3.95733	-734
3.96800	-738
3.97867	-741
3.98933	-745
4.00000	-748
4.01067	-753
4.02133	-759
4.03200	-766
4.04267	-772
4.05333	-779
4.06400	-786
4.07467	-793
4.08533	-800
4.09600	-807
4.10667	-815
4.11733	-822
4.12800	-828
4.13867	-833
4.14933	-839
4.16000	-843
4.17067	-846
4.18133	-851
4.19200	-855
4.20267	-859
4.21333	-862
4.22400	-866
4.23467	-871
4.24533	-874
4.25600	-877
4.26667	-880
4.27733	-883
4.28800	-886
4.29867	-889
4.30933	-893
4.32000	-896
4.33067	-900
4.34133	-905
4.35200	-908
4.36267	-912
4.37333	-916
4.38400	-921
4.39467	-925
4.40533	-928
4.41600	-930
4.42667	-933
4.43733	-936
4.44800	-939
4.45867	-942
4.46933	-946
4.48000	-950
4.49067	-953
4.50133	-955
4.51200	-957
4.52267	-960
4.53333	-963
4.54400	-965
4.55467	-965
4.56533	-967
4.57600	-971
4.58667	-974
4.59733	-976
4.60800	-979
4.61867	-981
4.62933	-983
4.64000	-985
4.65067	-986
4.66133	-988
4.67200	-989
4.68267	-989
4.69333	-986
4.70400	-983
4.71467	-979
4.72533	-975
4.73600	-969
4.74667	-961
4.75733	-955
4.76800	-948
4.77867	-939
4.78933	-932
4.80000	-927
4.81067	-921
4.82133	-915
4.83200	-910
4.84267	-906
4.85333	-904
4.86400	-902
4.87467	-902
4.88533	-903
4.89600	-904
4.90667	-906
4.91733	-909
4.92800	-912
4.93867	-915
4.94933	-919
4.96000	-925
4.97067	-931
4.98133	-937
4.99200	-942
5.00267	-947
5.01333	-953
5.02400	-959
5.03467	-964
5.04533	-969
5.05600	-975
5.06667	-982
5.07733	-988
5.08800	-993
5.09867	-998
5.10933	-1004
5.12000	-1011
5.13067	-1018
5.14133	-1023
5.15200	-1028
5.16267	-1033
5.17333	-1038
5.18400	-1044
5.19467	-1049
5.20533	-1054
5.21600	-1059
5.22667	-1064
5.23733	-1069
5.24800	-1074
5.25867	-1077
5.26933	-1080
5.28000	-1083
5.29067	-1087
5.30133	-1091
5.31200	-1094
5.32267	-1099
5.33333	-1103
5.34400	-1107
5.35467	-1111
5.36533	-1116
5.37600	-1120
5.38667	-1122
5.39733	-1125
5.40800	-1128
5.41867	-1132
5.42933	-1136
5.44000	-1138
5.45067	-1141
5.46133	-1146
5.47200	-1151
5.48267	-1155
5.49333	-1158
5.50400	-1162
5.51467	-1165
5.52533	-1168
5.53600	-1171
5.54667	-1174
5.55733	-1176
5.56800	-1178
5.57867	-1182
5.58933	-1185
5.60000	-1188
5.61067	-1192
5.62133	-1195
5.63200	-1199
5.64267	-1202
5.65333	-1205
5.66400	-1207
5.67467	-1211
5.68533	-1214
5.69600	-1217
5.70667	-1220
5.71733	-1223
5.72800	-1225
5.73867	-1229
5.74933	-1232
5.76000	-1235
5.77067	-1238
5.78133	-1241
5.79200	-1243
5.80267	-1245
5.81333	-1247
5.82400	-1250
5.83467	-1253
5.84533	-1255
5.85600	-1258
5.86667	-1261
5.87733	-1262
5.88800	-1264
5.89867	-1267
5.90933	-1269
5.92000	-1271
5.93067	-1274
5.94133	-1276
5.95200	-1278
5.96267	-1279
5.97333	-1283
5.98400	-1286
5.99467	-1288
6.00533	-1290
6.01600	-1293
6.02667	-1295
6.03733	-1297
6.04800	-1299
6.05867	-1302
6.06933	-1305
6.08000	-1307
6.09067	-1309
6.10133	-1313
6.11200	-1315
6.12267	-1319
6.13333	-1322
6.14400	-1325
6.15467	-1328
6.16533	-1330
6.17600	-1333
6.18667	-1336
6.19733	-1340
6.20800	-1342
6.21867	-1343
6.22933	-1346
6.24000	-1348
6.25067	-1350
6.26133	-1351
6.27200	-1353
6.28267	-1355
6.29333	-1356
6.30400	-1358
6.31467	-1359
6.32533	-1361
6.33600	-1364
6.34667	-1366
6.35733	-1368
6.36800	-1371
6.37867	-1375
6.38933	-1378
6.40000	-1381
6.41067	-1384
6.42133	-1387
6.43200	-1389
6.44267	-1390
6.45333	-1392
6.46400	-1394
6.47467	-1397
6.48533	-1398
6.49600	-1399
6.50667	-1401
6.51733	-1404
6.52800	-1406
6.53867	-1408
6.54933	-1411
6.56000	-1413
6.57067	-1415
6.58133	-1416
6.59200	-1419
6.60267	-1421
6.61333	-1422
6.62400	-1425
6.63467	-1428
6.64533	-1431
6.65600	-1433
6.66667	-1435
6.67733	-1437
6.68800	-1439
6.69867	-1441
6.70933	-1442
6.72000	-1444
6.73067	-1447
6.74133	-1450
6.75200	-1453
6.76267	-1456
6.77333	-1459
6.78400	-1463
6.79467	-1466
6.80533	-1469
6.81600	-1470
6.82667	-1472
6.83733	-1474
6.84800	-1476
6.85867	-1478
6.86933	-1479
6.88000	-1480
6.89067	-1482
6.90133	-1483
6.91200	-1485
6.92267	-1487
6.93333	-1489
6.94400	-1491
6.95467	-1493
6.96533	-1495
6.97600	-1499
6.98667	-1502
6.99733	-1506
7.00800	-1509
7.01867	-1511
7.02933	-1514
7.04000	-1516
7.05067	-1517
7.06133	-1520
7.07200	-1522
7.08267	-1524
7.09333	-1527
7.10400	-1530
7.11467	-1532
7.12533	-1535
7.13600	-1538
7.14667	-1539
7.15733	-1541
7.16800	-1543
7.17867	-1545
7.18933	-1547
7.20000	-1549
7.21067	-1551
7.22133	-1553
7.23200	-1554
7.24267	-1556
7.25333	-1558
7.26400	-1560
7.27467	-1564
7.28533	-1567
7.29600	-1568
7.30667	-1570
7.31733	-1572
7.32800	-1575
7.33867	-1577
7.34933	-1580
7.36000	-1582
7.37067	-1585
7.38133	-1588
7.39200	-1590
7.40267	-1592
7.41333	-1594
7.42400	-1596
7.43467	-1598
7.44533	-1600
7.45600	-1602
7.46667	-1603
7.47733	-1605
7.48800	-1607
7.49867	-1608
7.50933	-1611
7.52000	-1613
7.53067	-1616
7.54133	-1618
7.55200	-1621
7.56267	-1624
7.57333	-1625
7.58400	-1627
7.59467	-1629
7.60533	-1632
7.61600	-1634
7.62667	-1635
7.63733	-1636
7.64800	-1639
7.65867	-1641
7.66933	-1643
7.68000	-1644
7.69067	-1647
7.70133	-1650
7.71200	-1653
7.72267	-1655
7.73333	-1659
7.74400	-1662
7.75467	-1664
7.76533	-1666
7.77600	-1667
7.78667	-1669
7.79733	-1671
7.80800	-1674
7.81867	-1675
7.82933	-1676
7.84000	-1676
7.85067	-1679
7.86133	-1682
7.87200	-1684
7.88267	-1685
7.89333	-1686
7.90400	-1688
7.91467	-1690
7.92533	-1692
7.93600	-1695
7.94667	-1696
7.95733	-1698
7.96800	-1701
7.97867	-1704
7.98933	-1708
8.00000	-1712
8.01067	-1716
8.02133	-1719
8.03200	-1721
8.04267	-1723
8.05333	-1725
8.06400	-1728
8.07467	-1730
8.08533	-1732
8.09600	-1733
8.10667	-1735
8.11733	-1737
8.12800	-1739
8.13867	-1741
8.14933	-1743
8.16000	-1744
8.17067	-1747
8.18133	-1751
8.19200	-1752
8.20267	-1754
8.21333	-1757
8.22400	-1760
8.23467	-1763
8.24533	-1765
8.25600	-1767
8.26667	-1769
8.27733	-1771
8.28800	-1773
8.29867	-1775
8.30933	-1777
8.32000	-1779
8.33067	-1780
8.34133	-1782
8.35200	-1785
8.36267	-1788
8.37333	-1791
8.38400	-1794
8.39467	-1798
8.40533	-1800
8.41600	-1803
8.42667	-1805
8.43733	-1808
8.44800	-1811
8.45867	-1815
8.46933	-1819
8.48000	-1821
8.49067	-1824
8.50133	-1826
8.51200	-1827
8.52267	-1828
8.53333	-1830
8.54400	-1832
8.55467	-1834
8.56533	-1836
8.57600	-1838
8.58667	-1839
8.59733	-1842
8.60800	-1844
8.61867	-1847
8.62933	-1849
8.64000	-1851
8.65067	-1853
8.66133	-1856
8.67200	-1859
8.68267	-1861
8.69333	-1862
8.70400	-1864
8.71467	-1866
8.72533	-1868
8.73600	-1871
8.74667	-1874
8.75733	-1876
8.76800	-1879
8.77867	-1881
8.78933	-1883
8.80000	-1886
8.81067	-1887
8.82133	-1888
8.83200	-1890
8.84267	-1892
8.85333	-1894
8.86400	-1897
8.87467	-1900
8.88533	-1902
8.89600	-1903
8.90667	-1904
8.91733	-1906
8.92800	-1909
8.93867	-1911
8.94933	-1913
8.96000	-1916
8.97067	-1919
8.98133	-1921
8.99200	-1924
9.00267	-1926
9.01333	-1929
9.02400	-1932
9.03467	-1935
9.04533	-1938
9.05600	-1941
9.06667	-1943
9.07733	-1947
9.08800	-1949
9.09867	-1952
9.10933	-1955
9.12000	-1958
9.13067	-1960
9.14133	-1962
9.15200	-1965
9.16267	-1967
9.17333	-1969
9.18400	-1971
9.19467	-1973
9.20533	-1975
9.21600	-1978
9.22667	-1979
9.23733	-1981
9.24800	-1983
9.25867	-1984
9.26933	-1986
9.28000	-1989
9.29067	-1991
9.30133	-1992
9.31200	-1994
9.32267	-1996
9.33333	-1997
9.34400	-1999
9.35467	-2002
9.36533	-2005
9.37600	-2008
9.38667	-2010
9.39733	-2014
9.40800	-2016
9.41867	-2018
9.42933	-2021
9.44000	-2023
9.45067	-2026
9.46133	-2028
9.47200	-2029
9.48267	-2032
9.49333	-2034
9.50400	-2035
9.51467	-2038
9.52533	-2041
9.53600	-2043
9.54667	-2044
9.55733	-2046
9.56800	-2048
9.57867	-2049
9.58933	-2050
9.60000	-2052
9.61067	-2055
9.62133	-2056
9.63200	-2057
9.64267	-2059
9.65333	-2061
9.66400	-2064
9.67467	-2066
9.68533	-2068
9.69600	-2070
9.70667	-2073
9.71733	-2075
9.72800	-2077
9.73867	-2081
9.74933	-2085
9.76000	-2087
9.77067	-2089
9.78133	-2091
9.79200	-2095
9.80267	-2099
9.81333	-2103
9.82400	-2106
9.83467	-2109
9.84533	-2112
9.85600	-2115
9.86667	-2118
9.87733	-2120
9.88800	-2122
9.89867	-2123
9.90933	-2126
9.92000	-2129
9.93067	-2131
9.94133	-2134
9.95200	-2138
9.96267	-2141
9.97333	-2143
9.98400	-2147
9.99467	-2150
10.00533	-2153
10.01600	-2155
10.02667	-2158
10.03733	-2161
10.04800	-2163
10.05867	-2166
10.06933	-2169
10.08000	-2173
10.09067	-2175
10.10133	-2177
10.11200	-2179
10.12267	-2181
10.13333	-2184
10.14400	-2187
10.15467	-2188
10.16533	-2190
10.17600	-2193
10.18667	-2196
10.19733	-2198
10.20800	-2199
10.21867	-2201
10.22933	-2204
10.24000	-2207
10.25067	-2208
10.26133	-2209
10.27200	-2211
10.28267	-2214
10.29333	-2216
10.30400	-2219
10.31467	-2220
10.32533	-2222
10.33600	-2225
10.34667	-2228
10.35733	-2230
10.36800	-2233
10.37867	-2237
10.38933	-2239
10.40000	-2242
10.41067	-2244
10.42133	-2246
10.43200	-2248
10.44267	-2250
10.45333	-2253
10.46400	-2255
10.47467	-2258
10.48533	-2261
10.49600	-2264
10.50667	-2265
10.51733	-2266
10.52800	-2269
10.53867	-2271
10.54933	-2272
10.56000	-2275
10.57067	-2276
10.58133	-2279
10.59200	-2281
10.60267	-2284
10.61333	-2285
10.62400	-2287
10.63467	-2291
10.64533	-2295
10.65600	-2299
10.66667	-2302
10.67733	-2306
10.68800	-2309
10.69867	-2311
10.70933	-2313
10.72000	-2316
10.73067	-2318
10.74133	-2321
10.75200	-2324
10.76267	-2327
10.77333	-2329
10.78400	-2332
10.79467	-2335
10.80533	-2338
10.81600	-2341
10.82667	-2343
10.83733	-2345
10.84800	-2348
10.85867	-2350
10.86933	-2353
10.88000	-2355
10.89067	-2357
10.90133	-2359
10.91200	-2361
10.92267	-2363
10.93333	-2365
10.94400	-2367
10.95467	-2368
10.96533	-2370
10.97600	-2373
10.98667	-2375
10.99733	-2376
11.00800	-2377
11.01867	-2380
11.02933	-2382
11.04000	-2385
11.05067	-2388
11.06133	-2390
11.07200	-2391
11.08267	-2394
11.09333	-2395
11.10400	-2396
11.11467	-2398
11.12533	-2401
11.13600	-2404
11.14667	-2406
11.15733	-2409
11.16800	-2413
11.17867	-2416
11.18933	-2419
11.20000	-2421
11.21067	-2423
11.22133	-2426
11.23200	-2428
11.24267	-2431
11.25333	-2434
11.26400	-2437
11.27467	-2439
11.28533	-2441
11.29600	-2444
11.30667	-2447
11.31733	-2450
11.32800	-2452
11.33867	-2455
11.34933	-2457
11.36000	-2460
11.37067	-2463
11.38133	-2466
11.39200	-2469
11.40267	-2472
11.41333	-2475
11.42400	-2478
11.43467	-2480
11.44533	-2482
11.45600	-2484
11.46667	-2485
11.47733	-2486
11.48800	-2488
11.49867	-2490
11.50933	-2492
11.52000	-2494
11.53067	-2496
11.54133	-2498
11.55200	-2500
11.56267	-2502
11.57333	-2505
11.58400	-2508
11.59467	-2511
11.60533	-2514
11.61600	-2515
11.62667	-2517
11.63733	-2520
11.64800	-2522
11.65867	-2525
11.66933	-2528
11.68000	-2531
11.69067	-2533
11.70133	-2536
11.71200	-2539
11.72267	-2542
11.73333	-2544
11.74400	-2547
11.75467	-2551
11.76533	-2554
11.77600	-2556
11.78667	-2557
11.79733	-2558
11.80800	-2562
11.81867	-2564
11.82933	-2565
11.84000	-2566
11.85067	-2568
11.86133	-2570
11.87200	-2572
11.88267	-2574
11.89333	-2576
11.90400	-2578
11.91467	-2580
11.92533	-2582
11.93600	-2585
11.94667	-2588
11.95733	-2590
11.96800	-2593
11.97867	-2596
11.98933	-2600
12.00000	-2603
12.01067	-2606
12.02133	-2609
12.03200	-2612
12.04267	-2616
12.05333	-2619
12.06400	-2622
12.07467	-2625
12.08533	-2627
12.09600	-2629
12.10667	-2631
12.11733	-2634
12.12800	-2636
12.13867	-2638
12.14933	-2639
12.16000	-2640
12.17067	-2641
12.18133	-2643
12.19200	-2645
12.20267	-2648
12.21333	-2651
12.22400	-2655
12.23467	-2658
12.24533	-2661
12.25600	-2662
12.26667	-2665
12.27733	-2668
12.28800	-2670
12.29867	-2671
12.30933	-2673
12.32000	-2675
12.33067	-2676
12.34133	-2677
12.35200	-2679
12.36267	-2680
12.37333	-2683
12.38400	-2685
12.39467	-2688
12.40533	-2690
12.41600	-2692
12.42667	-2694
12.43733	-2695
12.44800	-2697
12.45867	-2698
12.46933	-2699
12.48000	-2701
12.49067	-2703
12.50133	-2704
12.51200	-2706
12.52267	-2709
12.53333	-2711
12.54400	-2713
12.55467	-2715
12.56533	-2718
12.57600	-2721
12.58667	-2724
12.59733	-2726
12.60800	-2728
12.61867	-2732
12.62933	-2735
12.64000	-2737
12.65067	-2740
12.66133	-2743
12.67200	-2745
12.68267	-2747
12.69333	-2749
12.70400	-2751
12.71467	-2752
12.72533	-2754
12.73600	-2757
12.74667	-2760
12.75733	-2763
12.76800	-2765
12.77867	-2768
12.78933	-2770
12.80000	-2772
12.81067	-2776
12.82133	-2779
12.83200	-2781
12.84267	-2784
12.85333	-2787
12.86400	-2791
12.87467	-2793
12.88533	-2795
12.89600	-2798
12.90667	-2801
12.91733	-2804
12.92800	-2807
12.93867	-2809
12.94933	-2811
12.96000	-2812
12.97067	-2815
12.98133	-2816
12.99200	-2817
13.00267	-2819
13.01333	-2822
13.02400	-2823
13.03467	-2824
13.04533	-2825
13.05600	-2826
13.06667	-2829
13.07733	-2832
13.08800	-2834
13.09867	-2836
13.10933	-2838
13.12000	-2840
13.13067	-2842
13.14133	-2845
13.15200	-2848
13.16267	-2851
13.17333	-2854
13.18400	-2857
13.19467	-2860
13.20533	-2863
13.21600	-2865
13.22667	-2867
13.23733	-2870
13.24800	-2872
13.25867	-2874
13.26933	-2876
13.28000	-2878
13.29067	-2879
13.30133	-2881
13.31200	-2882
13.32267	-2882
13.33333	-2883
13.34400	-2886
13.35467	-2887
13.36533	-2889
13.37600	-2892
13.38667	-2894
13.39733	-2897
13.40800	-2900
13.41867	-2902
13.42933	-2904
13.44000	-2907
13.45067	-2909
13.46133	-2912
13.47200	-2914
13.48267	-2916
13.49333	-2918
13.50400	-2920
13.51467	-2921
13.52533	-2923
13.53600	-2926
13.54667	-2929
13.55733	-2932
13.56800	-2935
13.57867	-2937
13.58933	-2939
13.60000	-2940
13.61067	-2942
13.62133	-2945
13.63200	-2947
13.64267	-2949
13.65333	-2952
13.66400	-2955
13.67467	-2956
13.68533	-2958
13.69600	-2961
13.70667	-2964
13.71733	-2967
13.72800	-2969
13.73867	-2971
13.74933	-2974
13.76000	-2977
13.77067	-2979
13.78133	-2981
13.79200	-2982
13.80267	-2984
13.81333	-2986
13.82400	-2988
13.83467	-2991
13.84533	-2994
13.85600	-2997
13.86667	-3000
13.87733	-3003
13.88800	-3005
13.89867	-3008
13.90933	-3010
13.92000	-3013
13.93067	-3015
13.94133	-3017
13.95200	-3019
13.96267	-3022
13.97333	-3024
13.98400	-3025
13.99467	-3026
14.00533	-3028
14.01600	-3030
14.02667	-3032
14.03733	-3034
14.04800	-3036
14.05867	-3038
14.06933	-3040
14.08000	-3043
14.09067	-3046
14.10133	-3049
14.11200	-3050
14.12267	-3052
14.13333	-3055
14.14400	-3059
14.15467	-3061
14.16533	-3064
14.17600	-3067
14.18667	-3068
14.19733	-3070
14.20800	-3072
14.21867	-3073
14.22933	-3075
14.24000	-3077
14.25067	-3080
14.26133	-3081
14.27200	-3082
14.28267	-3083
14.29333	-3084
14.30400	-3086
14.31467	-3089
14.32533	-3092
14.33600	-3094
14.34667	-3096
14.35733	-3098
14.36800	-3099
14.37867	-3101
14.38933	-3103
14.40000	-3105
14.41067	-3106
14.42133	-3107
14.43200	-3109
14.44267	-3112
14.45333	-3114
14.46400	-3116
14.47467	-3118
14.48533	-3120
14.49600	-3123
14.50667	-3125
14.51733	-3128
14.52800	-3130
14.53867	-3133
14.54933	-3134
14.56000	-3135
14.57067	-3136
14.58133	-3138
14.59200	-3140
14.60267	-3141
14.61333	-3142
14.62400	-3143
14.63467	-3146
14.64533	-3149
14.65600	-3151
14.66667	-3153
14.67733	-3155
14.68800	-3157
14.69867	-3159
14.70933	-3162
14.72000	-3163
14.73067	-3165
14.74133	-3167
14.75200	-3170
14.76267	-3172
14.77333	-3175
14.78400	-3177
14.79467	-3179
14.80533	-3181
14.81600	-3182
14.82667	-3185
14.83733	-3187
14.84800	-3190
14.85867	-3192
14.86933	-3194
14.88000	-3196
14.89067	-3198
14.90133	-3200
14.91200	-3201
14.92267	-3203
14.93333	-3206
14.94400	-3207
14.95467	-3208
14.96533	-3210
14.97600	-3212
14.98667	-3213
14.99733	-3215
15.00800	-3217
15.01867	-3220
15.02933	-3222
15.04000	-3224
15.05067	-3227
15.06133	-3229
15.07200	-3231
15.08267	-3234
15.09333	-3237
15.10400	-3238
15.11467	-3239
15.12533	-3241
15.13600	-3244
15.14667	-3247
15.15733	-3249
15.16800	-3250
15.17867	-3251
15.18933	-3252
15.20000	-3254
15.21067	-3255
15.22133	-3256
15.23200	-3258
15.24267	-3260
15.25333	-3262
15.26400	-3264
15.27467	-3266
15.28533	-3268
15.29600	-3269
15.30667	-3270
15.31733	-3272
15.32800	-3273
15.33867	-3275
15.34933	-3277
15.36000	-3279
15.37067	-3280
15.38133	-3283
15.39200	-3285
15.40267	-3287
15.41333	-3289
15.42400	-3291
15.43467	-3294
15.44533	-3295
15.45600	-3297
15.46667	-3300
15.47733	-3302
15.48800	-3304
15.49867	-3306
15.50933	-3306
15.52000	-3309
15.53067	-3312
15.54133	-3314
15.55200	-3315
15.56267	-3316
15.57333	-3319
15.58400	-3322
15.59467	-3325
15.60533	-3326
15.61600	-3328
15.62667	-3331
15.63733	-3334
15.64800	-3335
15.65867	-3338
15.66933	-3341
15.68000	-3343
15.69067	-3345
15.70133	-3348
15.71200	-3350
15.72267	-3352
15.73333	-3355
15.74400	-3357
15.75467	-3359
15.76533	-3361
15.77600	-3362
15.78667	-3364
15.79733	-3366
15.80800	-3367
15.81867	-3368
15.82933	-3370
15.84000	-3371
15.85067	-3373
15.86133	-3374
15.87200	-3376
15.88267	-3378
15.89333	-3380
15.90400	-3383
15.91467	-3385
15.92533	-3388
15.93600	-3390
15.94667	-3393
15.95733	-3396
15.96800	-3399
15.97867	-3402
15.98933	-3405
16.00000	-3409
16.01067	-3412
16.02133	-3415
16.03200	-3418
16.04267	-3420
16.05333	-3422
16.06400	-3424
16.07467	-3428
16.08533	-3431
16.09600	-3433
16.10667	-3435
16.11733	-3437
16.12800	-3440
16.13867	-3442
16.14933	-3443
16.16000	-3444
16.17067	-3445
16.18133	-3446
16.19200	-3447
16.20267	-3449
16.21333	-3451
16.22400	-3453
16.23467	-3455
16.24533	-3457
16.25600	-3460
16.26667	-3462
16.27733	-3464
16.28800	-3466
16.29867	-3468
16.30933	-3471
16.32000	-3473
16.33067	-3476
16.34133	-3480
16.35200	-3481
16.36267	-3483
16.37333	-3486
16.38400	-3489
16.39467	-3491
16.40533	-3494
16.41600	-3496
16.42667	-3499
16.43733	-3503
16.44800	-3505
16.45867	-3507
16.46933	-3509
16.48000	-3512
16.49067	-3514
16.50133	-3517
16.51200	-3520
16.52267	-3523
16.53333	-3524
16.54400	-3526
16.55467	-3528
16.56533	-3530
16.57600	-3532
16.58667	-3533
16.59733	-3534
16.60800	-3535
16.61867	-3537
16.62933	-3539
16.64000	-3540
16.65067	-3541
16.66133	-3542
16.67200	-3544
16.68267	-3545
16.69333	-3549
16.70400	-3551
16.71467	-3555
16.72533	-3559
16.73600	-3563
16.74667	-3566
16.75733	-3569
16.76800	-3571
16.77867	-3574
16.78933	-3576
16.80000	-3578
16.81067	-3582
16.82133	-3586
16.83200	-3589
16.84267	-3592
16.85333	-3595
16.86400	-3598
16.87467	-3600
16.88533	-3603
16.89600	-3605
16.90667	-3608
16.91733	-3612
16.92800	-3615
16.93867	-3617
16.94933	-3618
16.96000	-3621
16.97067	-3624
16.98133	-3627
16.99200	-3629
17.00267	-3631
17.01333	-3634
17.02400	-3636
17.03467	-3638
17.04533	-3640
17.05600	-3643
17.06667	-3646
17.07733	-3649
17.08800	-3652
17.09867	-3654
17.10933	-3656
17.12000	-3660
17.13067	-3662
17.14133	-3663
17.15200	-3666
17.16267	-3669
17.17333	-3671
17.18400	-3674
17.19467	-3676
17.20533	-3678
17.21600	-3680
17.22667	-3682
17.23733	-3686
17.24800	-3689
17.25867	-3691
17.26933	-3693
17.28000	-3696
17.29067	-3699
17.30133	-3701
17.31200	-3703
17.32267	-3705
17.33333	-3706
17.34400	-3709
17.35467	-3712
17.36533	-3714
17.37600	-3717
17.38667	-3720
17.39733	-3721
17.40800	-3722
17.41867	-3724
17.42933	-3726
17.44000	-3727
17.45067	-3729
17.46133	-3732
17.47200	-3735
17.48267	-3737
17.49333	-3740
17.50400	-3743
17.51467	-3746
17.52533	-3749
17.53600	-3753
17.54667	-3756
17.55733	-3758
17.56800	-3761
17.57867	-3764
17.58933	-3768
17.60000	-3770
17.61067	-3772
17.62133	-3775
17.63200	-3779
17.64267	-3782
17.65333	-3784
17.66400	-3787
17.67467	-3791
17.68533	-3794
17.69600	-3795
17.70667	-3797
17.71733	-3799
17.72800	-3802
17.73867	-3804
17.74933	-3806
17.76000	-3807
17.77067	-3809
17.78133	-3812
17.79200	-3815
17.80267	-3818
17.81333	-3820
17.82400	-3821
17.83467	-3822
17.84533	-3824
17.85600	-3826
17.86667	-3827
17.87733	-3829
17.88800	-3831
17.89867	-3833
17.90933	-3834
17.92000	-3836
17.93067	-3838
17.94133	-3839
17.95200	-3841
17.96267	-3843
17.97333	-3846
17.98400	-3848
17.99467	-3850
18.00533	-3853
18.01600	-3854
18.02667	-3856
18.03733	-3859
18.04800	-3863
18.05867	-3867
18.06933	-3870
18.08000	-3874
18.09067	-3877
18.10133	-3880
18.11200	-3882
18.12267	-3885
18.13333	-3888
18.14400	-3890
18.15467	-3893
18.16533	-3896
18.17600	-3898
18.18667	-3901
18.19733	-3904
18.20800	-3906
18.21867	-3908
18.22933	-3910
18.24000	-3912
18.25067	-3915
18.26133	-3917
18.27200	-3918
18.28267	-3920
18.29333	-3921
18.30400	-3923
18.31467	-3925
18.32533	-3927
18.33600	-3928
18.34667	-3929
18.35733	-3930
18.36800	-3931
18.37867	-3933
18.38933	-3935
18.40000	-3938
18.41067	-3940
18.42133	-3942
18.43200	-3945
18.44267	-3947
18.45333	-3950
18.46400	-3951
18.47467	-3952
18.48533	-3955
18.49600	-3957
18.50667	-3958
18.51733	-3959
18.52800	-3961
18.53867	-3963
18.54933	-3967
18.56000	-3969
18.57067	-3971
18.58133	-3974
18.59200	-3977
18.60267	-3980
18.61333	-3983
18.62400	-3985
18.63467	-3987
18.64533	-3989
18.65600	-3992
18.66667	-3995
18.67733	-3998
18.68800	-4001
18.69867	-4003
18.70933	-4006
18.72000	-4008
18.73067	-4010
18.74133	-4013
18.75200	-4015
18.76267	-4017
18.77333	-4019
18.78400	-4020
18.79467	-4021
18.80533	-4022
18.81600	-4023
18.82667	-4026
18.83733	-4028
18.84800	-4031
18.85867	-4033
18.86933	-4035
18.88000	-4036
18.89067	-4037
18.90133	-4039
18.91200	-4041
18.92267	-4043
18.93333	-4045
18.94400	-4046
18.95467	-4048
18.96533	-4051
18.97600	-4052
18.98667	-4055
18.99733	-4059
19.00800	-4062
19.01867	-4065
19.02933	-4068
19.04000	-4070
19.05067	-4071
19.06133	-4074
19.07200	-4076
19.08267	-4077
19.09333	-4080
19.10400	-4082
19.11467	-4083
19.12533	-4085
19.13600	-4087
19.14667	-4088
19.15733	-4090
19.16800	-4092
19.17867	-4094
19.18933	-4096
19.20000	-4098
19.21067	-4099
19.22133	-4101
19.23200	-4102
19.24267	-4102
19.25333	-4103
19.26400	-4104
19.27467	-4105
19.28533	-4105
19.29600	-4106
19.30667	-4105
19.31733	-4104
19.32800	-4103
19.33867	-4103
19.34933	-4104
19.36000	-4106
19.37067	-4108
19.38133	-4110
19.39200	-4111
19.40267	-4113
19.41333	-4115
19.42400	-4116
19.43467	-4117
19.44533	-4119
19.45600	-4122
19.46667	-4125
19.47733	-4128
19.48800	-4130
19.49867	-4133
19.50933	-4136
19.52000	-4139
19.53067	-4142
19.54133	-4144
19.55200	-4146
19.56267	-4148
19.57333	-4150
19.58400	-4151
19.59467	-4153
19.60533	-4154
19.61600	-4155
19.62667	-4156
19.63733	-4157
19.64800	-4158
19.65867	-4159
19.66933	-4160
19.68000	-4162
19.69067	-4163
19.70133	-4164
19.71200	-4165
19.72267	-4165
19.73333	-4165
19.74400	-4165
19.75467	-4168
19.76533	-4171
19.77600	-4173
19.78667	-4176
19.79733	-4178
19.80800	-4179
19.81867	-4180
19.82933	-4183
19.84000	-4185
19.85067	-4187
19.86133	-4189
19.87200	-4192
19.88267	-4193
19.89333	-4194
19.90400	-4195
19.91467	-4197
19.92533	-4198
19.93600	-4199
19.94667	-4200
19.95733	-4200
19.96800	-4202
19.97867	-4203
19.98933	-4204
20.00000	-4204
20.01067	-4204
20.02133	-4206
20.03200	-4207
20.04267	-4207
20.05333	-4208
20.06400	-4209
20.07467	-4209
20.08533	-4209
20.09600	-4209
20.10667	-4209
20.11733	-4210
20.12800	-4211
20.13867	-4212
20.14933	-4212
20.16000	-4212
20.17067	-4213
20.18133	-4216
20.19200	-4217
20.20267	-4218
20.21333	-4219
20.22400	-4219
20.23467	-4220
20.24533	-4221
20.25600	-4221
20.26667	-4222
20.27733	-4224
20.28800	-4225
20.29867	-4226
20.30933	-4226
20.32000	-4228
20.33067	-4229
20.34133	-4230
20.35200	-4230
20.36267	-4229
20.37333	-4229
20.38400	-4229
20.39467	-4229
20.40533	-4228
20.41600	-4227
20.42667	-4225
20.43733	-4223
20.44800	-4222
20.45867	-4221
20.46933	-4220
20.48000	-4219
20.49067	-4219
20.50133	-4218
20.51200	-4218
20.52267	-4218
20.53333	-4217
20.54400	-4216
20.55467	-4215
20.56533	-4216
20.57600	-4216
20.58667	-4216
20.59733	-4215
20.60800	-4215
20.61867	-4215
20.62933	-4216
20.64000	-4215
20.65067	-4214
20.66133	-4214
20.67200	-4214
20.68267	-4214
20.69333	-4214
20.70400	-4214
20.71467	-4214
20.72533	-4214
20.73600	-4213
20.74667	-4211
20.75733	-4211
20.76800	-4211
20.77867	-4211
20.78933	-4211
20.80000	-4213
20.81067	-4214
20.82133	-4212
20.83200	-4212
20.84267	-4211
20.85333	-4211
20.86400	-4211
20.87467	-4212
20.88533	-4212
20.89600	-4213
20.90667	-4212
20.91733	-4210
20.92800	-4209
20.93867	-4208
20.94933	-4207
20.96000	-4205
20.97067	-4203
20.98133	-4201
20.99200	-4199
21.00267	-4197
21.01333	-4196
21.02400	-4194
21.03467	-4192
21.04533	-4192
21.05600	-4191
21.06667	-4190
21.07733	-4190
21.08800	-4190
21.09867	-4189
21.10933	-4188
21.12000	-4187
21.13067	-4186
21.14133	-4185
21.15200	-4184
21.16267	-4183
21.17333	-4182
21.18400	-4181
21.19467	-4180
21.20533	-4179
21.21600	-4179
21.22667	-4178
21.23733	-4176
21.24800	-4174
21.25867	-4172
21.26933	-4169
21.28000	-4166
21.29067	-4164
21.30133	-4161
21.31200	-4157
21.32267	-4155
21.33333	-4153
21.34400	-4151
21.35467	-4149
21.36533	-4147
21.37600	-4144
21.38667	-4142
21.39733	-4140
21.40800	-4138
21.41867	-4135
21.42933	-4132
21.44000	-4130
21.45067	-4128
21.46133	-4125
21.47200	-4122
21.48267	-4119
21.49333	-4115
21.50400	-4111
21.51467	-4108
21.52533	-4103
21.53600	-4099
21.54667	-4096
21.55733	-4091
21.56800	-4087
21.57867	-4083
21.58933	-4079
21.60000	-4074
21.61067	-4069
21.62133	-4065
21.63200	-4060
21.64267	-4054
21.65333	-4049
21.66400	-4044
21.67467	-4039
21.68533	-4035
21.69600	-4030
21.70667	-4026
21.71733	-4022
21.72800	-4016
21.73867	-4012
21.74933	-4007
21.76000	-4003
21.77067	-3999
21.78133	-3995
21.79200	-3991
21.80267	-3988
21.81333	-3984
21.82400	-3981
21.83467	-3977
21.84533	-3973
21.85600	-3970
21.86667	-3967
21.87733	-3964
21.88800	-3961
21.89867	-3958
21.90933	-3955
21.92000	-3953
21.93067	-3950
21.94133	-3948
21.95200	-3946
21.96267	-3945
21.97333	-3942
21.98400	-3940
21.99467	-3937
22.00533	-3935
22.01600	-3933
22.02667	-3931
22.03733	-3931
22.04800	-3930
22.05867	-3930
22.06933	-3930
22.08000	-3929
22.09067	-3930
22.10133	-3931
22.11200	-3931
22.12267	-3930
22.13333	-3930
22.14400	-3931
22.15467	-3932
22.16533	-3935
22.17600	-3937
22.18667	-3938
22.19733	-3940
22.20800	-3942
22.21867	-3944
22.22933	-3946
22.24000	-3947
22.25067	-3949
22.26133	-3951
22.27200	-3952
22.28267	-3953
22.29333	-3954
22.30400	-3956
22.31467	-3958
22.32533	-3960
22.33600	-3962
22.34667	-3965
22.35733	-3967
22.36800	-3968
22.37867	-3969
22.38933	-3970
22.40000	-3973
22.41067	-3975
22.42133	-3977
22.43200	-3979
22.44267	-3980
22.45333	-3982
22.46400	-3982
22.47467	-3983
22.48533	-3985
22.49600	-3986
22.50667	-3987
22.51733	-3988
22.52800	-3988
22.53867	-3988
22.54933	-3988
22.56000	-3988
22.57067	-3988
22.58133	-3989
22.59200	-3990
22.60267	-3990
22.61333	-3988
22.62400	-3988
22.63467	-3988
22.64533	-3988
22.65600	-3987
22.66667	-3987
22.67733	-3988
22.68800	-3987
22.69867	-3985
22.70933	-3985
22.72000	-3986
22.73067	-3986
22.74133	-3986
22.75200	-3986
22.76267	-3984
22.77333	-3984
22.78400	-3985
22.79467	-3986
22.80533	-3988
22.81600	-3988
22.82667	-3989
22.83733	-3990
22.84800	-3992
22.85867	-3993
22.86933	-3994
22.88000	-3997
22.89067	-4002
22.90133	-4006
22.91200	-4010
22.92267	-4014
22.93333	-4018
22.94400	-4023
22.95467	-4027
22.96533	-4031
22.97600	-4035
22.98667	-4040
22.99733	-4044
23.00800	-4049
23.01867	-4054
23.02933	-4058
23.04000	-4064
23.05067	-4070
23.06133	-4076
23.07200	-4081
23.08267	-4086
23.09333	-4092
23.10400	-4098
23.11467	-4103
23.12533	-4108
23.13600	-4112
23.14667	-4117
23.15733	-4124
23.16800	-4131
23.17867	-4138
23.18933	-4144
23.20000	-4150
23.21067	-4156
23.22133	-4163
23.23200	-4170
23.24267	-4177
23.25333	-4184
23.26400	-4191
23.27467	-4198
23.28533	-4206
23.29600	-4214
23.30667	-4223
23.31733	-4232
23.32800	-4239
23.33867	-4246
23.34933	-4254
23.36000	-4261
23.37067	-4268
23.38133	-4275
23.39200	-4282
23.40267	-4289
23.41333	-4295
23.42400	-4302
23.43467	-4310
23.44533	-4317
23.45600	-4323
23.46667	-4331
23.47733	-4338
23.48800	-4346
23.49867	-4353
23.50933	-4359
23.52000	-4366
23.53067	-4374
23.54133	-4381
23.55200	-4388
23.56267	-4395
23.57333	-4403
23.58400	-4411
23.59467	-4418
23.60533	-4425
23.61600	-4431
23.62667	-4437
23.63733	-4444
23.64800	-4451
23.65867	-4458
23.66933	-4464
23.68000	-4470
23.69067	-4476
23.70133	-4482
23.71200	-4488
23.72267	-4495
23.73333	-4501
23.74400	-4507
23.75467	-4514
23.76533	-4518
23.77600	-4523
23.78667	-4528
23.79733	-4533
23.80800	-4537
23.81867	-4541
23.82933	-4546
23.84000	-4550
23.85067	-4555
23.86133	-4560
23.87200	-4564
23.88267	-4569
23.89333	-4575
23.90400	-4581
23.91467	-4587
23.92533	-4592
23.93600	-4597
23.94667	-4603
23.95733	-4609
23.96800	-4615
23.97867	-4620
23.98933	-4625
24.00000	-4630
24.01067	-4635
24.02133	-4641
24.03200	-4646
24.04267	-4651
24.05333	-4655
24.06400	-4660
24.07467	-4665
24.08533	-4669
24.09600	-4674
24.10667	-4679
24.11733	-4684
24.12800	-4689
24.13867	-4694
24.14933	-4700
24.16000	-4705
24.17067	-4710
24.18133	-4715
24.19200	-4721
24.20267	-4727
24.21333	-4732
24.22400	-4738
24.23467	-4743
24.24533	-4748
24.25600	-4753
24.26667	-4758
24.27733	-4763
24.28800	-4769
24.29867	-4775
24.30933	-4781
24.32000	-4786
24.33067	-4792
24.34133	-4798
24.35200	-4804
24.36267	-4809
24.37333	-4814
24.38400	-4820
24.39467	-4827
24.40533	-4833
24.41600	-4839
24.42667	-4843
24.43733	-4848
24.44800	-4854
24.45867	-4860
24.46933	-4865
24.48000	-4870
24.49067	-4875
24.50133	-4880
24.51200	-4885
24.52267	-4889
24.53333	-4894
24.54400	-4898
24.55467	-4903
24.56533	-4908
24.57600	-4912
24.58667	-4917
24.59733	-4922
24.60800	-4926
24.61867	-4930
24.62933	-4935
24.64000	-4939
24.65067	-4943
24.66133	-4948
24.67200	-4952
24.68267	-4956
24.69333	-4959
24.70400	-4962
24.71467	-4966
24.72533	-4970
24.73600	-4972
24.74667	-4975
24.75733	-4978
24.76800	-4982
24.77867	-4985
24.78933	-4989
24.80000	-4993
24.81067	-4995
24.82133	-4998
24.83200	-5003
24.84267	-5008
24.85333	-5012
24.86400	-5016
24.87467	-5021
24.88533	-5025
24.89600	-5029
24.90667	-5033
24.91733	-5037
24.92800	-5041
24.93867	-5046
24.94933	-5050
24.96000	-5054
24.97067	-5057
24.98133	-5060
24.99200	-5062
25.00267	-5054
25.01333	-5051
25.02400	-5063
25.03467	-5072
25.04533	-5079
25.05600	-5086
25.06667	-5091
25.07733	-5097
25.08800	-5103
25.09867	-5107
25.10933	-5112
25.12000	-5117
25.13067	-5120
25.14133	-5123
25.15200	-5127
25.16267	-5132
25.17333	-5135
25.18400	-5138
25.19467	-5142
25.20533	-5145
25.21600	-5148
25.22667	-5151
25.23733	-5155
25.24800	-5159
25.25867	-5161
25.26933	-5164
25.28000	-5167
25.29067	-5170
25.30133	-5174
25.31200	-5178
25.32267	-5183
25.33333	-5187
25.34400	-5191
25.35467	-5195
25.36533	-5200
25.37600	-5203
25.38667	-5207
25.39733	-5212
25.40800	-5217
25.41867	-5220
25.42933	-5222
25.44000	-5225
25.45067	-5229
25.46133	-5233
25.47200	-5237
25.48267	-5240
25.49333	-5242
25.50400	-5245
25.51467	-5248
25.52533	-5251
25.53600	-5256
25.54667	-5260
25.55733	-5264
25.56800	-5268
25.57867	-5271
25.58933	-5274
25.60000	-5276
25.61067	-5279
25.62133	-5283
25.63200	-5287
25.64267	-5291
25.65333	-5294
25.66400	-5298
25.67467	-5303
25.68533	-5307
25.69600	-5311
25.70667	-5314
25.71733	-5318
25.72800	-5321
25.73867	-5324
25.74933	-5326
25.76000	-5330
25.77067	-5334
25.78133	-5338
25.79200	-5340
25.80267	-5343
25.81333	-5346
25.82400	-5348
25.83467	-5351
25.84533	-5353
25.85600	-5355
25.86667	-5356
25.87733	-5359
25.88800	-5362
25.89867	-5364
25.90933	-5367
25.92000	-5369
25.93067	-5370
25.94133	-5372
25.95200	-5374
25.96267	-5377
25.97333	-5380
25.98400	-5383
25.99467	-5385
26.00533	-5389
26.01600	-5394
26.02667	-5398
26.03733	-5400
26.04800	-5403
26.05867	-5406
26.06933	-5409
26.08000	-5411
26.09067	-5413
26.10133	-5416
26.11200	-5419
26.12267	-5421
26.13333	-5424
26.14400	-5426
26.15467	-5427
26.16533	-5429
26.17600	-5430
26.18667	-5433
26.19733	-5435
26.20800	-5437
26.21867	-5438
26.22933	-5441
26.24000	-5444
26.25067	-5445
26.26133	-5447
26.27200	-5450
26.28267	-5452
26.29333	-5454
26.30400	-5457
26.31467	-5460
26.32533	-5462
26.33600	-5463
26.34667	-5466
26.35733	-5468
26.36800	-5470
26.37867	-5472
26.38933	-5474
26.40000	-5477
26.41067	-5479
26.42133	-5481
26.43200	-5483
26.44267	-5484
26.45333	-5486
26.46400	-5490
26.47467	-5493
26.48533	-5494
26.49600	-5497
26.50667	-5501
26.51733	-5504
26.52800	-5506
26.53867	-5508
26.54933	-5511
26.56000	-5513
26.57067	-5514
26.58133	-5516
26.59200	-5518
26.60267	-5520
26.61333	-5522
26.62400	-5525
26.63467	-5528
26.64533	-5531
26.65600	-5535
26.66667	-5538
26.67733	-5541
26.68800	-5545
26.69867	-5549
26.70933	-5553
26.72000	-5556
26.73067	-5558
26.74133	-5561
26.75200	-5566
26.76267	-5570
26.77333	-5573
26.78400	-5577
26.79467	-5580
26.80533	-5583
26.81600	-5586
26.82667	-5589
26.83733	-5590
26.84800	-5592
26.85867	-5596
26.86933	-5599
26.88000	-5600
26.89067	-5601
26.90133	-5602
26.91200	-5604
26.92267	-5604
26.93333	-5605
26.94400	-5607
26.95467	-5609
26.96533	-5610
26.97600	-5612
26.98667	-5614
26.99733	-5615
27.00800	-5617
27.01867	-5620
27.02933	-5623
27.04000	-5625
27.05067	-5626
27.06133	-5628
27.07200	-5630
27.08267	-5633
27.09333	-5635
27.10400	-5637
27.11467	-5639
27.12533	-5641
27.13600	-5643
27.14667	-5645
27.15733	-5646
27.16800	-5648
27.17867	-5650
27.18933	-5652
27.20000	-5654
27.21067	-5654
27.22133	-5657
27.23200	-5660
27.24267	-5663
27.25333	-5664
27.26400	-5667
27.27467	-5670
27.28533	-5673
27.29600	-5676
27.30667	-5678
27.31733	-5680
27.32800	-5682
27.33867	-5685
27.34933	-5687
27.36000	-5691
27.37067	-5695
27.38133	-5696
27.39200	-5698
27.40267	-5701
27.41333	-5703
27.42400	-5705
27.43467	-5708
27.44533	-5711
27.45600	-5713
27.46667	-5715
27.47733	-5717
27.48800	-5719
27.49867	-5720
27.50933	-5722
27.52000	-5724
27.53067	-5726
27.54133	-5730
27.55200	-5732
27.56267	-5734
27.57333	-5736
27.58400	-5738
27.59467	-5741
27.60533	-5744
27.61600	-5746
27.62667	-5747
27.63733	-5749
27.64800	-5750
27.65867	-5751
27.66933	-5752
27.68000	-5754
27.69067	-5756
27.70133	-5758
27.71200	-5759
27.72267	-5761
27.73333	-5763
27.74400	-5765
27.75467	-5769
27.76533	-5771
27.77600	-5773
27.78667	-5774
27.79733	-5776
27.80800	-5778
27.81867	-5779
27.82933	-5781
27.84000	-5783
27.85067	-5784
27.86133	-5786
27.87200	-5788
27.88267	-5788
27.89333	-5790
27.90400	-5792
27.91467	-5794
27.92533	-5796
27.93600	-5799
27.94667	-5801
27.95733	-5804
27.96800	-5808
27.97867	-5810
27.98933	-5813
28.00000	-5815
28.01067	-5816
28.02133	-5819
28.03200	-5822
28.04267	-5825
28.05333	-5829
28.06400	-5832
28.07467	-5835
28.08533	-5837
28.09600	-5839
28.10667	-5842
28.11733	-5844
28.12800	-5847
28.13867	-5850
28.14933	-5853
28.16000	-5855
28.17067	-5858
28.18133	-5861
28.19200	-5863
28.20267	-5864
28.21333	-5864
28.22400	-5865
28.23467	-5867
28.24533	-5868
28.25600	-5869
28.26667	-5870
28.27733	-5872
28.28800	-5873
28.29867	-5874
28.30933	-5877
28.32000	-5880
28.33067	-5883
28.34133	-5885
28.35200	-5886
28.36267	-5889
28.37333	-5891
28.38400	-5894
28.39467	-5896
28.40533	-5898
28.41600	-5899
28.42667	-5902
28.43733	-5905
28.44800	-5906
28.45867	-5909
28.46933	-5912
28.48000	-5914
28.49067	-5915
28.50133	-5916
28.51200	-5918
28.52267	-5921
28.53333	-5924
28.54400	-5927
28.55467	-5929
28.56533	-5931
28.57600	-5935
28.58667	-5938
28.59733	-5940
28.60800	-5941
28.61867	-5943
28.62933	-5945
28.64000	-5947
28.65067	-5950
28.66133	-5953
28.67200	-5955
28.68267	-5958
28.69333	-5961
28.70400	-5963
28.71467	-5965
28.72533	-5968
28.73600	-5971
28.74667	-5974
28.75733	-5976
28.76800	-5979
28.77867	-5982
28.78933	-5984
28.80000	-5985
28.81067	-5988
28.82133	-5990
28.83200	-5992
28.84267	-5994
28.85333	-5997
28.86400	-5999
28.87467	-6001
28.88533	-6005
28.89600	-6008
28.90667	-6011
28.91733	-6014
28.92800	-6017
28.93867	-6019
28.94933	-6022
28.96000	-6024
28.97067	-6028
28.98133	-6030
28.99200	-6033
29.00267	-6035
29.01333	-6037
29.02400	-6040
29.03467	-6042
29.04533	-6045
29.05600	-6047
29.06667	-6048
29.07733	-6049
29.08800	-6050
29.09867	-6052
29.10933	-6053
29.12000	-6055
29.13067	-6056
29.14133	-6057
29.15200	-6060
29.16267	-6061
29.17333	-6062
29.18400	-6064
29.19467	-6067
29.20533	-6068
29.21600	-6069
29.22667	-6071
29.23733	-6074
29.24800	-6075
29.25867	-6077
29.26933	-6080
29.28000	-6082
29.29067	-6084
29.30133	-6086
29.31200	-6088
29.32267	-6090
29.33333	-6092
29.34400	-6095
29.35467	-6098
29.36533	-6100
29.37600	-6102
29.38667	-6105
29.39733	-6107
29.40800	-6109
29.41867	-6110
29.42933	-6112
29.44000	-6115
29.45067	-6117
29.46133	-6117
29.47200	-6120
29.48267	-6122
29.49333	-6124
29.50400	-6125
29.51467	-6128
29.52533	-6130
29.53600	-6131
29.54667	-6132
29.55733	-6133
29.56800	-6136
29.57867	-6138
29.58933	-6140
29.60000	-6141
29.61067	-6143
29.62133	-6145
29.63200	-6146
29.64267	-6148
29.65333	-6150
29.66400	-6151
29.67467	-6153
29.68533	-6155
29.69600	-6157
29.70667	-6160
29.71733	-6163
29.72800	-6166
29.73867	-6169
29.74933	-6171
29.76000	-6174
29.77067	-6176
29.78133	-6178
29.79200	-6180
29.80267	-6181
29.81333	-6184
29.82400	-6185
29.83467	-6187
29.84533	-6189
29.85600	-6191
29.86667	-6195
29.87733	-6197
29.88800	-6198
29.89867	-6200
29.90933	-6202
29.92000	-6204
29.93067	-6205
29.94133	-6207
29.95200	-6209
29.96267	-6211
29.97333	-6212
29.98400	-6214
29.99467	-6216
30.00533	-6217


